timestamp,ambient,infrared,red
1705465878280,173055,172945,4138
1705465878298,410187,349838,4232
1705465878299,409691,349393,4143
1705465878293,410051,349707,4184
1705465878296,409700,349354,4174
1705465878314,409700,349354,4174
1705465878315,409700,349354,4174
1705465878309,409700,349354,4174
1705465878311,409702,349337,4173
1705465878329,409702,349337,4173
1705465878330,409702,349337,4173
1705465878324,409702,349337,4173
1705465878327,409695,349346,4127
1705465878345,409695,349346,4127
1705465878346,409695,349346,4127
1705465878340,409695,349346,4127
1705465878343,409775,349421,4188
1705465878361,409775,349421,4188
1705465878362,409775,349421,4188
1705465878356,409775,349421,4188
1705465878358,409771,349357,4201
1705465878376,409771,349357,4201
1705465878377,409771,349357,4201
1705465878371,409771,349357,4201
1705465878351,409734,349442,4190
1705465878367,409784,349363,4191
1705465878382,409768,349441,4272
1705465878398,409733,349470,4190
1705465878414,409802,349450,4202
1705465878429,409717,349415,4238
1705465878437,409765,349472,4190
1705465878453,409807,349444,4123
1705465878468,409813,349484,4187
1705465878484,409801,349519,4183
1705465878500,409829,349518,4105
1705465878515,409912,349506,4188
1705465878547,409953,349530,4164
1705465878563,409826,349516,4123
1705465878578,409967,349502,4190
1705465878594,409928,349604,4275
1705465878610,409977,349638,4190
1705465878625,409985,349591,4202
1705465878637,409952,349662,4189
1705465878653,409928,349658,4191
1705465878668,410032,349708,4240
1705465878684,410008,349740,4190
1705465878700,410038,349810,4191
1705465878715,410094,349758,4145
1705465878724,410221,349813,4192
1705465878740,410166,349923,4193
1705465878755,410176,349888,4105
1705465878771,410206,349862,4193
1705465878787,410288,349937,4123
1705465878802,410337,349880,4193
1705465878829,410223,349838,4190
1705465878845,410265,349856,4272
1705465878860,410162,349757,4190
1705465878876,410033,349705,4214
1705465878892,409794,349615,4199
1705465878907,409844,349496,4202
1705465878919,409784,349452,4182
1705465878935,409612,349451,4187
1705465878950,409707,349496,4187
1705465878966,409745,349401,4186
1705465878982,409623,349506,4190
1705465878997,409797,349461,4123
1705465879024,409824,349474,4187
1705465879040,409771,349504,4158
1705465879055,409837,349454,4124
1705465879071,409815,349476,4167
1705465879087,409768,349475,4209
1705465879102,409826,349452,4216
1705465879099,409735,349409,4179
1705465879115,409783,349459,4261
1705465879130,409683,349458,4188
1705465879146,409811,349404,4173
1705465879162,409820,349521,4232
1705465879177,409704,349490,4186
1705465879192,409844,349472,4118
1705465879208,409866,349494,4203
1705465879223,409841,349534,4189
1705465879239,409959,349531,4166
1705465879255,410040,349540,4189
1705465879270,409966,349557,4180
1705465879296,409969,349569,4212
1705465879312,410037,349533,4194
1705465879327,410021,349619,4273
1705465879343,410091,349616,4213
1705465879359,410034,349568,4191
1705465879374,410092,349635,4260
1705465879383,410117,349695,4189
1705465879399,410130,349663,4238
1705465879414,410081,349723,4211
1705465879430,410178,349736,4190
1705465879446,410201,349760,4170
1705465879461,410125,349820,4189
1705465879478,410234,349715,4196
1705465879494,410163,349626,4103
1705465879509,409939,349536,4145
1705465879525,409855,349413,4118
1705465879541,409758,349341,4186
1705465879556,409610,349193,4186
1705465879579,409565,349180,4186
1705465879595,409598,349028,4184
1705465879610,409483,349046,4247
1705465879626,409403,349109,4184
1705465879642,409459,349075,4183
1705465879657,409459,349073,4256
1705465879667,409473,349105,4183
1705465879683,409495,349077,4179
1705465879698,409408,349059,4142
1705465879714,409449,349075,4182
1705465879730,409479,349036,4176
1705465879745,409454,349026,4184
1705465879773,409447,348971,4178
1705465879789,409449,348995,4114
1705465879804,409476,348941,4183
1705465879820,409431,349013,4230
1705465879836,409451,348976,4223
1705465879851,409476,348973,4210
1705465879851,409428,348984,4184
1705465879867,409451,349035,4184
1705465879882,409520,348986,4193
1705465879898,409549,349017,4187
1705465879914,409467,349123,4157
1705465879929,409592,349108,4120
1705465879955,409539,349103,4195
1705465879971,409621,349170,4183
1705465879986,409611,349132,4101
1705465880002,409638,349099,4183
1705465880018,409699,349224,4203
1705465880033,409736,349224,4147
1705465880043,409725,349230,4184
1705465880059,409718,349232,4271
1705465880074,409749,349284,4185
1705465880090,409756,349276,4188
1705465880106,409769,349299,4224
1705465880121,409710,349290,4200
1705465880136,409736,349218,4200
1705465880152,409461,349182,4183
1705465880167,409426,349113,4184
1705465880183,409309,348863,4189
1705465880199,409162,348802,4182
1705465880214,409085,348676,4135
1705465880227,409035,348625,4180
1705465880243,408974,348536,4181
1705465880258,408953,348540,4153
1705465880274,408908,348498,4177
1705465880290,408889,348445,4187
1705465880305,408897,348495,4199
1705465880314,408916,348407,4182
1705465880330,408864,348473,4262
1705465880345,408865,348523,4177
1705465880361,408840,348447,4209
1705465880377,408832,348442,4250
1705465880392,408700,348480,4179
1705465880433,408783,348305,4116
1705465880449,408740,348349,4173
1705465880464,408759,348443,4149
1705465880480,408848,348372,4091
1705465880496,409007,348409,4178
1705465880511,408855,348464,4140
1705465880524,408896,348425,4180
1705465880540,408927,348454,4177
1705465880555,408943,348509,4273
1705465880571,409019,348501,4178
1705465880587,409027,348456,4194
1705465880602,409022,348578,4210
1705465880599,409093,348580,4183
1705465880615,409080,348566,4228
1705465880630,409099,348576,4204
1705465880646,409116,348664,4187
1705465880662,409115,348631,4124
1705465880677,409081,348632,4180
1705465880703,409191,348664,4189
1705465880719,409274,348694,4098
1705465880734,409276,348660,4181
1705465880750,409214,348721,4120
1705465880766,409350,348691,4183
1705465880781,409241,348646,4182
1705465880795,409231,348660,4168
1705465880811,409123,348537,4180
1705465880826,408894,348382,4209
1705465880842,408673,348303,4173
1705465880858,408642,348194,4188
1705465880873,408565,348101,4201
1705465880900,408493,347985,4175
1705465880916,408490,348027,4177
1705465880931,408463,347916,4121
1705465880947,408424,347897,4181
1705465880963,408463,347913,4122
1705465880978,408471,347921,4182
1705465880987,408417,347891,4176
1705465881003,408354,347851,4107
1705465881018,408447,347856,4178
1705465881034,408421,347836,4204
1705465881050,408344,347817,4204
1705465881065,408340,347703,4188
1705465881079,408303,347790,4208
1705465881095,408269,347799,4177
1705465881110,408308,347812,4195
1705465881126,408320,347755,4165
1705465881142,408286,347851,4175
1705465881157,408325,347777,4132
1705465881170,408376,347804,4173
1705465881186,408388,347859,4177
1705465881201,408399,347890,4091
1705465881217,408365,347857,4176
1705465881233,408422,347858,4168
1705465881248,408454,347860,4103
1705465881259,408414,347956,4176
1705465881275,408509,347874,4260
1705465881290,408573,347946,4176
1705465881306,408517,347991,4152
1705465881322,408554,347968,4236
1705465881337,408513,348004,4178
1705465881352,408599,348036,4199
1705465881368,408581,348048,4202
1705465881383,408638,348112,4177
1705465881399,408685,348031,4180
1705465881415,408593,348082,4180
1705465881430,408638,348053,4158
1705465881453,408609,347999,4176
1705465881469,408494,347870,4136
1705465881484,408348,347790,4112
1705465881500,408269,347685,4177
1705465881516,408117,347508,4196
1705465881531,408094,347527,4258
1705465881543,408031,347396,4171
1705465881559,407986,347384,4215
1705465881574,407917,347394,4206
1705465881590,407941,347378,4198
1705465881606,407980,347372,4232
1705465881621,407916,347431,4179
1705465881635,407994,347424,4173
1705465881651,407951,347371,4120
1705465881666,407952,347403,4175
1705465881682,407988,347348,4086
1705465881698,408012,347337,4176
1705465881713,407954,347269,4175
1705465881724,407969,347343,4177
1705465881740,407988,347252,4176
1705465881755,407972,347282,4222
1705465881771,408021,347364,4176
1705465881787,408016,347302,4181
1705465881802,408055,347371,4251
1705465881813,408070,347380,4189
1705465881829,408010,347392,4188
1705465881844,408084,347428,4210
1705465881860,408060,347546,4175
1705465881876,408162,347467,4127
1705465881891,408121,347448,4179
1705465881921,408149,347494,4192
1705465881937,408151,347497,4109
1705465881952,408292,347532,4180
1705465881968,408265,347579,4155
1705465881984,408345,347598,4181
1705465881999,408305,347533,4178
1705465882024,408373,347676,4191
1705465882040,408457,347703,4181
1705465882055,408418,347663,4192
1705465882071,408398,347698,4179
1705465882087,408368,347747,4180
1705465882102,408398,347674,4256
1705465882113,408374,347619,4181
1705465882129,408221,347620,4177
1705465882144,408110,347415,4114
1705465882160,408001,347392,4178
1705465882176,407933,347267,4162
1705465882191,407909,347192,4185
1705465882189,407856,347129,4178
1705465882205,407834,347169,4110
1705465882220,407933,347188,4177
1705465882236,407902,347204,4187
1705465882252,407894,347190,4235
1705465882267,407926,347143,4178
1705465882295,407877,347185,4188
1705465882311,407841,347153,4177
1705465882326,407887,347171,4207
1705465882342,407883,347159,4180
1705465882358,407819,347207,4179
1705465882373,407859,347129,4112
1705465882387,407845,347058,4199
1705465882403,407844,347146,4178
1705465882418,407824,347154,4115
1705465882434,407917,347204,4180
1705465882450,407919,347187,4142
1705465882465,407985,347227,4181
1705465882473,407966,347217,4176
1705465882489,407978,347219,4251
1705465882504,408071,347313,4183
1705465882520,407990,347264,4193
1705465882536,408086,347273,4253
1705465882551,408056,347301,4180
1705465882578,408159,347324,4184
1705465882594,408131,347364,4205
1705465882609,408146,347463,4179
1705465882625,408200,347407,4145
1705465882641,408238,347454,4180
1705465882656,408277,347480,4129
1705465882671,408303,347529,4207
1705465882687,408339,347559,4184
1705465882702,408377,347600,4137
1705465882718,408501,347608,4176
1705465882734,408334,347503,4185
1705465882749,408341,347501,4210
1705465882759,408175,347425,4182
1705465882775,408090,347265,4206
1705465882790,407925,347255,4207
1705465882806,407833,347100,4191
1705465882822,407768,347063,4229
1705465882837,407633,346983,4180
1705465882852,407683,347007,4179
1705465882868,407648,346943,4123
1705465882883,407684,347028,4180
1705465882899,407705,346962,4116
1705465882915,407792,346961,4189
1705465882930,407666,346960,4123
1705465882954,407714,347000,4201
1705465882970,407745,346967,4175
1705465882985,407645,346894,4210
1705465883001,407679,346973,4169
1705465883017,407754,346839,4199
1705465883032,407668,346919,4225
1705465883046,407680,346922,4160
1705465883062,407748,346992,4205
1705465883077,407719,346960,4254
1705465883093,407749,346978,4171
1705465883109,407733,346979,4114
1705465883124,407759,347005,4196
1705465883141,407781,347025,4172
1705465883157,407817,347030,4100
1705465883172,407906,347070,4183
1705465883188,407835,347078,4182
1705465883204,407939,347075,4111
1705465883219,407911,347133,4185
1705465883229,407916,347131,4185
1705465883245,407975,347231,4184
1705465883260,407953,347190,4186
1705465883276,408034,347315,4163
1705465883292,407945,347334,4185
1705465883307,408127,347356,4212
1705465883329,408030,347362,4186
1705465883345,408170,347491,4184
1705465883360,408188,347409,4130
1705465883376,408217,347450,4200
1705465883392,408127,347422,4166
1705465883407,408092,347308,4103
1705465883418,407982,347254,4161
1705465883434,407783,347146,4136
1705465883449,407758,346974,4183
1705465883465,407656,346883,4183
1705465883481,407533,346862,4269
1705465883496,407605,346761,4204
1705465883514,407523,346775,4199
1705465883530,407483,346779,4211
1705465883545,407516,346807,4192
1705465883561,407581,346793,4206
1705465883577,407399,346810,4184
1705465883592,407495,346801,4213
1705465883601,407551,346743,4202
1705465883617,407419,346805,4184
1705465883632,407524,346770,4099
1705465883648,407569,346752,4182
1705465883664,407537,346735,4188
1705465883679,407571,346749,4120
1705465883688,407522,346710,4166
1705465883704,407534,346739,4230
1705465883719,407644,346811,4227
1705465883735,407592,346823,4175
1705465883751,407627,346875,4257
1705465883766,407556,346919,4187
1705465883798,407645,346921,4193
1705465883814,407686,346991,4209
1705465883829,407650,347013,4186
1705465883845,407776,347030,4099
1705465883861,407789,347085,4187
1705465883876,407809,347202,4190
1705465883887,407893,347137,4178
1705465883903,407995,347132,4186
1705465883918,407948,347220,4163
1705465883934,407989,347234,4189
1705465883950,408074,347240,4186
1705465883965,408094,347334,4272
1705465883974,408135,347381,4183
1705465883990,408183,347396,4190
1705465884005,408143,347411,4229
1705465884021,408197,347416,4210
1705465884037,408097,347340,4249
1705465884052,407921,347275,4190
1705465884080,407873,347156,4195
1705465884096,407711,346978,4122
1705465884111,407598,346988,4188
1705465884127,407703,346851,4143
1705465884143,407644,346850,4172
1705465884158,407611,346763,4185
1705465884170,407620,346826,4172
1705465884186,407744,346794,4188
1705465884201,407638,346808,4208
1705465884217,407623,346836,4162
1705465884233,407674,346819,4190
1705465884248,407643,346895,4311
1705465884259,407625,346863,4190
1705465884275,407661,346907,4190
1705465884290,407619,346898,4263
1705465884306,407586,346907,4187
1705465884322,407602,346894,4123
1705465884337,407653,346915,4172
1705465884349,407664,346909,4189
1705465884365,407643,346984,4105
1705465884380,407798,346975,4189
1705465884396,407744,346976,4188
1705465884412,407775,347073,4123
1705465884427,407828,347023,4190
1705465884454,407856,347119,4267
1705465884470,407796,347144,4191
1705465884485,407783,347113,4203
1705465884501,407845,347197,4205
1705465884517,407840,347216,4190
1705465884532,407861,347269,4244
1705465884546,407865,347294,4189
1705465884562,407939,347401,4190
1705465884577,407966,347371,4139
1705465884593,407988,347390,4181
1705465884609,408086,347487,4191
1705465884624,408139,347484,4125
1705465884633,408215,347520,4190
1705465884649,408220,347548,4150
1705465884664,408289,347544,4199
1705465884680,408229,347523,4193
1705465884696,408153,347501,4272
1705465884711,408052,347393,4192
1705465884727,407903,347326,4162
1705465884743,407790,347166,4217
1705465884758,407719,347147,4203
1705465884774,407839,347074,4223
1705465884790,407719,347062,4183
1705465884805,407806,347148,4199
1705465884829,407815,347039,4191
1705465884845,407845,347133,4191
1705465884860,407895,347119,4132
1705465884876,407947,347164,4175
1705465884892,407908,347149,4153
1705465884907,407920,347193,4164
1705465884918,407933,347189,4169
1705465884934,407908,347186,4213
1705465884949,407882,347126,4220
1705465884965,407833,347115,4200
1705465884981,407840,347155,4267
1705465884996,407759,347191,4192
1705465885012,407755,347142,4200
1705465885028,407764,347141,4266
1705465885043,407662,347227,4191
1705465885059,407760,347176,4122
1705465885075,407693,347127,4205
1705465885090,407732,347225,4191
1705465885103,407660,347097,4189
1705465885119,407804,347142,4189
1705465885134,407679,347190,4194
1705465885150,407809,347177,4190
1705465885166,407727,347149,4188
1705465885181,407682,347198,4259
1705465885206,407733,347250,4187
1705465885222,407684,347152,4187
1705465885237,407675,347228,4232
1705465885253,407654,347259,4187
1705465885269,407707,347295,4234
1705465885284,407582,347317,4210
1705465885295,407694,347241,4186
1705465885311,407592,347285,4114
1705465885326,407507,347230,4184
1705465885342,407431,347099,4164
1705465885358,407320,346989,4098
1705465885373,407150,346840,4138
1705465885398,407071,346752,4132
1705465885414,407029,346716,4177
1705465885429,406972,346587,4181
1705465885445,406889,346669,4182
1705465885461,406997,346524,4180
1705465885476,406944,346613,4208
1705465885477,406982,346700,4180
1705465885493,407042,346694,4200
1705465885508,407067,346709,4256
1705465885524,407102,346713,4173
1705465885540,407142,346782,4200
1705465885555,407156,346749,4125
1705465885564,407156,346745,4184
1705465885580,407196,346770,4096
1705465885595,407247,346778,4182
1705465885611,407264,346813,4162
1705465885627,407247,346844,4116
1705465885642,407396,346844,4179
1705465885673,407310,346953,4227
1705465885689,407478,346927,4224
1705465885704,407456,346966,4187
1705465885720,407511,346969,4180
1705465885736,407508,347047,4185
1705465885751,407580,347057,4197
1705465885759,407670,347139,4184
1705465885775,407676,347230,4185
1705465885790,407753,347235,4136
1705465885806,407827,347272,4182
1705465885822,407845,347331,4171
1705465885837,407879,347304,4102
1705465885850,407979,347346,4187
1705465885866,407967,347434,4162
1705465885881,408064,347428,4188
1705465885897,408105,347447,4190
1705465885913,408138,347574,4272
1705465885928,408182,347591,4188
1705465885938,408187,347613,4167
1705465885954,408190,347586,4214
1705465885969,408199,347595,4205
1705465885985,408164,347585,4191
1705465886001,408015,347446,4183
1705465886016,407984,347466,4188
1705465886044,407994,347352,4186
1705465886060,407948,347355,4188
1705465886075,407970,347302,4144
1705465886091,408014,347278,4191
1705465886107,407966,347252,4191
1705465886122,408002,347278,4127
1705465886134,408008,347317,4190
1705465886150,407989,347305,4226
1705465886165,408100,347372,4244
1705465886181,408152,347346,4179
1705465886197,408067,347418,4273
1705465886212,408010,347390,4176
1705465886224,408123,347425,4196
1705465886240,408099,347399,4263
1705465886255,408036,347415,4190
1705465886271,408188,347494,4216
1705465886287,408150,347442,4187
1705465886302,408165,347542,4192
1705465886313,408206,347507,4192
1705465886329,408290,347508,4192
1705465886344,408243,347560,4154
1705465886360,408245,347549,4125
1705465886376,408323,347513,4190
1705465886391,408285,347656,4291
1705465886412,408323,347643,4212
1705465886428,408391,347625,4255
1705465886443,408416,347706,4265
1705465886459,408392,347685,4217
1705465886475,408439,347795,4293
1705465886490,408359,347770,4215
1705465886509,408488,347850,4194
1705465886525,408452,347871,4149
1705465886540,408501,347860,4192
1705465886556,408604,347934,4194
1705465886572,408557,347924,4112
1705465886587,408635,347933,4193
1705465886600,408613,347954,4193
1705465886616,408678,347977,4192
1705465886631,408547,347851,4190
1705465886647,408470,347799,4283
1705465886663,408424,347721,4192
1705465886678,408305,347612,4215
1705465886690,408322,347569,4189
1705465886706,408269,347600,4193
1705465886721,408290,347606,4263
1705465886737,408285,347622,4190
1705465886753,408356,347667,4186
1705465886768,408333,347694,4126
1705465886794,408315,347666,4188
1705465886810,408372,347654,4129
1705465886825,408452,347693,4201
1705465886841,408336,347655,4189
1705465886857,408397,347692,4125
1705465886872,408488,347650,4191
1705465886884,408373,347685,4191
1705465886900,408376,347637,4232
1705465886915,408399,347648,4202
1705465886931,408322,347722,4218
1705465886947,408419,347728,4191
1705465886962,408417,347761,4230
1705465886976,408469,347759,4221
1705465886992,408374,347801,4191
1705465887007,408475,347805,4124
1705465887023,408484,347839,4207
1705465887039,408581,347926,4191
1705465887054,408529,347859,4102
1705465887066,408613,347883,4163
1705465887082,408597,347984,4185
1705465887097,408644,347935,4120
1705465887113,408654,347959,4209
1705465887129,408699,348017,4250
1705465887144,408784,348027,4192
1705465887169,408727,347982,4190
1705465887185,408724,348085,4232
1705465887200,408718,348084,4225
1705465887216,408840,348150,4196
1705465887232,408691,348152,4215
1705465887247,408862,348247,4195
1705465887259,408782,348159,4140
1705465887275,408685,348133,4168
1705465887290,408620,347989,4188
1705465887306,408581,347902,4111
1705465887322,408518,347776,4148
1705465887337,408373,347750,4140
1705465887348,408417,347672,4194
1705465887364,408324,347561,4193
1705465887379,408288,347581,4249
1705465887395,408328,347603,4190
1705465887411,408283,347559,4234
1705465887426,408222,347599,4224
1705465887439,408251,347616,4210
1705465887455,408267,347574,4262
1705465887470,408155,347648,4187
1705465887486,408167,347617,4217
1705465887502,408215,347569,4139
1705465887517,408141,347561,4188
1705465887543,408147,347554,4189
1705465887559,408212,347566,4189
1705465887574,408156,347513,4189
1705465887590,408137,347557,4123
1705465887606,408196,347509,4192
1705465887621,408104,347497,4242
1705465887633,408098,347546,4190
1705465887649,408085,347476,4190
1705465887664,408108,347514,4263
1705465887680,407982,347596,4190
1705465887696,407977,347609,4194
1705465887711,407989,347521,4217
1705465887723,407974,347517,4186
1705465887739,407966,347512,4132
1705465887754,407895,347521,4189
1705465887770,408000,347652,4182
1705465887786,407935,347543,4099
1705465887801,408054,347542,4186
1705465887813,407982,347598,4163
1705465887829,408044,347612,4183
1705465887844,408055,347609,4188
1705465887860,408092,347629,4236
1705465887876,408127,347590,4186
1705465887891,407993,347509,4201
1705465887918,407821,347442,4186
1705465887934,407724,347335,4200
1705465887949,407628,347170,4234
1705465887965,407513,347072,4184
1705465887981,407496,347057,4183
1705465887996,407368,346928,4133
1705465888010,407265,346911,4204
1705465888026,407369,346859,4139
1705465888041,407315,346868,4165
1705465888057,407304,346842,4183
1705465888073,407345,346798,4121
1705465888088,407409,346841,4182
1705465888099,407320,346785,4199
1705465888115,407255,346780,4257
1705465888130,407318,346788,4208
1705465888146,407193,346727,4210
1705465888162,407132,346744,4182
1705465888177,407176,346735,4190
1705465888190,407194,346712,4170
1705465888206,407142,346774,4182
1705465888221,407228,346746,4120
1705465888237,407183,346801,4181
1705465888253,407252,346880,4183
1705465888268,407224,346785,4098
1705465888279,407303,346794,4202
1705465888295,407371,346871,4121
1705465888310,407358,346872,4119
1705465888326,407370,346872,4178
1705465888342,407369,346943,4281
1705465888357,407517,346971,4166
1705465888383,407472,346931,4197
1705465888399,407520,347007,4258
1705465888414,407454,347096,4186
1705465888430,407583,347086,4178
1705465888446,407537,347126,4196
1705465888461,407627,347254,4186
1705465888473,407708,347201,4168
1705465888489,407723,347222,4186
1705465888504,407725,347267,4186
1705465888520,407725,347193,4100
1705465888536,407563,347016,4188
1705465888551,407478,346949,4139
1705465888565,407307,346848,4171
1705465888581,407291,346668,4188
1705465888596,407148,346563,4266
1705465888612,407101,346527,4183
1705465888628,407071,346462,4206
1705465888643,406848,346498,4209
1705465888668,406988,346489,4189
1705465888684,406951,346442,4240
1705465888699,406922,346448,4185
1705465888715,406968,346478,4184
1705465888731,406953,346475,4127
1705465888746,406931,346525,4181
1705465888759,406906,346487,4192
1705465888775,406984,346427,4193
1705465888790,406981,346412,4142
1705465888806,406961,346439,4147
1705465888822,406995,346410,4182
1705465888837,406902,346401,4203
1705465888849,406952,346464,4149
1705465888865,406974,346374,4228
1705465888880,406993,346461,4258
1705465888896,407018,346514,4185
1705465888912,407043,346571,4182
1705465888927,407105,346557,4259
1705465888939,407072,346601,4187
1705465888955,407172,346561,4120
1705465888970,407112,346701,4200
1705465888986,407204,346669,4195
1705465889002,407280,346716,4159
1705465889017,407321,346734,4188
1705465889043,407269,346793,4189
1705465889059,407332,346730,4193
1705465889074,407336,346728,4186
1705465889090,407307,346819,4211
1705465889106,407306,346833,4189
1705465889121,407333,346799,4191
1705465889134,407371,346895,4217
1705465889150,407285,346873,4187
1705465889165,407346,346848,4222
1705465889181,407177,346825,4207
1705465889197,407109,346734,4209
1705465889212,407012,346548,4132
1705465889224,406941,346486,4185
1705465889240,406899,346409,4161
1705465889255,406838,346361,4126
1705465889271,406810,346254,4185
1705465889287,406672,346193,4120
1705465889302,406712,346168,4185
1705465889314,406686,346138,4184
1705465889330,406577,346177,4216
1705465889345,406653,346155,4182
1705465889361,406566,346186,4183
1705465889377,406591,346089,4193
1705465889392,406599,346187,4206
1705465889418,406595,346128,4254
1705465889434,406405,346152,4179
1705465889449,406526,346105,4207
1705465889465,406550,346128,4125
1705465889481,406536,346181,4180
1705465889496,406552,346144,4092
1705465889508,406572,346148,4185
1705465889524,406597,346145,4182
1705465889539,406573,346171,4119
1705465889555,406615,346232,4181
1705465889571,406631,346236,4228
1705465889586,406748,346251,4184
1705465889599,406711,346245,4185
1705465889615,406719,346294,4230
1705465889630,406706,346305,4185
1705465889646,406826,346391,4195
1705465889662,406820,346405,4214
1705465889677,406815,346520,4204
1705465889689,406928,346453,4183
1705465889705,406917,346492,4186
1705465889720,407065,346593,4186
1705465889736,407091,346535,4098
1705465889752,407200,346573,4187
1705465889767,407172,346659,4164
1705465889794,407129,346587,4184
1705465889810,407099,346535,4186
1705465889825,406972,346494,4269
1705465889841,406923,346372,4186
1705465889857,406759,346241,4185
1705465889872,406675,346142,4225
1705465889884,406661,345997,4185
1705465889900,406586,345971,4270
1705465889915,406412,345895,4183
1705465889931,406509,345937,4182
1705465889947,406484,345899,4128
1705465889962,406460,345912,4184
1705465889974,406530,345914,4153
1705465889990,406549,345867,4171
1705465890005,406508,345792,4183
1705465890021,406550,345917,4211
1705465890037,406613,345888,4183
1705465890052,406510,345824,4193
1705465890065,406502,345811,4185
1705465890081,406573,345776,4185
1705465890096,406537,345827,4251
1705465890112,406577,345867,4184
1705465890128,406548,345874,4194
1705465890143,406603,345903,4256
1705465890155,406506,345886,4185
1705465890171,406610,345964,4120
1705465890186,406658,345931,4183
1705465890202,406628,346031,4187
1705465890218,406736,346015,4100
1705465890233,406828,346039,4190
1705465890259,406807,346009,4187
1705465890275,406839,346052,4116
1705465890290,406968,346041,4187
1705465890306,406938,346151,4195
1705465890322,406997,346156,4187
1705465890337,406995,346148,4225
1705465890348,407080,346221,4204
1705465890364,407021,346257,4187
1705465890379,407105,346281,4238
1705465890395,407138,346305,4234
1705465890411,407205,346391,4190
1705465890426,407212,346308,4135
1705465890439,407113,346267,4188
1705465890455,407030,346253,4190
1705465890470,406950,346096,4104
1705465890486,406903,345959,4174
1705465890502,406761,345884,4149
1705465890517,406799,345771,4191
1705465890544,406721,345666,4176
1705465890560,406714,345717,4268
1705465890575,406709,345703,4187
1705465890591,406689,345736,4188
1705465890607,406689,345711,4197
1705465890622,406747,345747,4199
1705465890634,406811,345798,4188
1705465890650,406655,345774,4191
1705465890665,406790,345782,4189
1705465890681,406802,345744,4153
1705465890697,406787,345814,4189
1705465890712,406803,345759,4124
1705465890724,406810,345783,4188
1705465890740,406859,345698,4147
1705465890755,406842,345765,4125
1705465890771,406919,345762,4189
1705465890787,406920,345787,4210
1705465890802,406940,345809,4217
1705465890813,406968,345789,4170
1705465890829,406970,345809,4264
1705465890844,406932,345890,4190
1705465890860,406968,345900,4213
1705465890876,407065,345895,4261
1705465890891,407002,345994,4192
1705465890919,407098,345961,4170
1705465890935,407061,345961,4191
1705465890950,407184,346051,4191
1705465890966,407142,345998,4119
1705465890982,407238,345996,4193
1705465890997,407252,346091,4183
1705465891010,407237,346163,4208
1705465891026,407293,346076,4187
1705465891041,407283,346181,4270
1705465891057,407364,346175,4192
1705465891073,407292,346069,4194
1705465891088,407272,346166,4266
1705465891098,407123,346047,4193
1705465891114,407039,345960,4255
1705465891129,406944,345831,4210
1705465891145,406895,345767,4190
1705465891161,406817,345682,4148
1705465891176,406845,345694,4190
1705465891190,406837,345632,4190
1705465891206,406931,345652,4194
1705465891221,406903,345658,4155
1705465891237,406906,345642,4190
1705465891253,406986,345726,4189
1705465891268,406903,345667,4190
1705465891294,406979,345719,4197
1705465891310,406987,345695,4191
1705465891325,406926,345650,4233
1705465891341,406883,345689,4216
1705465891357,406931,345671,4190
1705465891372,406928,345659,4262
1705465891384,406880,345687,4189
1705465891400,406916,345705,4211
1705465891415,406932,345707,4126
1705465891431,406868,345675,4191
1705465891447,406997,345753,4109
1705465891462,407066,345785,4191
1705465891474,407060,345785,4194
1705465891490,407105,345822,4170
1705465891505,407198,345823,4194
1705465891521,407133,345860,4191
1705465891537,407250,345896,4234
1705465891552,407173,345866,4193
1705465891564,407226,345950,4200
1705465891580,407194,346020,4192
1705465891595,407266,346012,4231
1705465891611,407254,346021,4222
1705465891627,407113,346083,4193
1705465891642,407169,346010,4138
1705465891669,407081,345994,4190
1705465891685,407093,346022,4172
1705465891700,406984,345992,4105
1705465891716,407014,345951,4186
1705465891732,406806,345819,4186
1705465891747,406715,345751,4184
1705465891759,406489,345498,4185
1705465891775,406413,345487,4214
1705465891790,406318,345309,4182
1705465891806,406139,345165,4192
1705465891822,406007,345227,4220
1705465891837,405671,345086,4195
1705465891849,405392,344836,4166
1705465891865,404914,344689,4168
1705465891880,404705,344612,4163
1705465891896,404535,344561,4116
1705465891912,404340,344557,4162
1705465891927,404294,344587,4067
1705465891953,404260,344613,4143
1705465891969,404271,344670,4159
1705465891984,404377,344797,4119
1705465892000,404638,345012,4162
1705465892016,404823,345253,4188
1705465892031,405149,345456,4231
1705465892044,405340,345625,4162
1705465892060,405503,345801,4229
1705465892075,405730,346001,4178
1705465892091,405895,346094,4190
1705465892107,406104,346248,4255
1705465892122,406188,346477,4184
1705465892134,406465,346542,4187
1705465892150,406595,346714,4187
1705465892165,406709,346863,4163
1705465892181,406869,346918,4143
1705465892197,407019,346930,4196
1705465892212,407090,347055,4197
1705465892224,407263,347172,4171
1705465892240,407275,347188,4199
1705465892255,407268,347282,4295
1705465892271,407386,347318,4195
1705465892287,407391,347331,4211
1705465892302,407486,347386,4274
1705465892328,407528,347441,4201
1705465892344,407562,347505,4222
1705465892359,407527,347463,4227
1705465892375,407451,347469,4199
1705465892391,407358,347249,4150
1705465892406,407243,347187,4200
1705465892418,407281,347119,4222
1705465892434,407291,347038,4118
1705465892449,407322,347009,4188
1705465892465,407255,346961,4201
1705465892481,407293,346960,4205
1705465892496,407256,346941,4204
1705465892509,407300,346973,4211
1705465892525,407306,347022,4205
1705465892540,407327,347045,4272
1705465892556,407243,347027,4239
1705465892572,407198,346977,4227
1705465892587,407116,346946,4247
1705465892599,407150,346906,4182
1705465892615,407179,346981,4202
1705465892630,407220,346896,4176
1705465892646,407167,346935,4201
1705465892662,407235,346932,4140
1705465892677,407287,346959,4208
1705465892689,407279,346857,4164
1705465892705,407240,347015,4134
1705465892720,407339,347012,4201
1705465892736,407295,347046,4203
1705465892752,407382,347047,4256
1705465892767,407377,347065,4213
1705465892793,407423,347099,4231
1705465892809,407366,347144,4202
1705465892824,407480,347240,4224
1705465892840,407487,347231,4255
1705465892856,407446,347357,4202
1705465892871,407558,347336,4138
1705465892884,407589,347390,4179
1705465892900,407603,347426,4204
1705465892915,407635,347434,4119
1705465892931,407712,347455,4193
1705465892947,407703,347524,4194
1705465892962,407697,347489,4181
1705465892974,407661,347464,4206
1705465892990,407610,347397,4289
1705465893005,407483,347310,4202
1705465893021,407385,347046,4183
1705465893037,407315,347048,4275
1705465893052,407089,346965,4231
1705465893078,407132,346843,4200
1705465893094,407070,346847,4209
1705465893109,407149,346899,4175
1705465893125,407145,346886,4150
1705465893141,407140,346891,4201
1705465893156,407152,346860,4177
1705465893168,407163,346860,4207
1705465893184,407198,346859,4158
1705465893199,407176,346878,4138
1705465893215,407159,346897,4212
1705465893231,407174,346846,4206
1705465893246,407152,346882,4288
1705465893259,407182,346859,4202
1705465893275,407196,346936,4244
1705465893290,407122,346960,4233
1705465893306,407255,346967,4203
1705465893322,407188,346944,4223
1705465893337,407160,346979,4204
1705465893349,407325,346945,4186
1705465893365,407249,346990,4125
1705465893380,407245,347126,4201
1705465893396,407350,347047,4198
1705465893412,407370,347069,4183
1705465893427,407310,347047,4201
1705465893439,407297,347058,4176
1705465893455,407375,347102,4204
1705465893470,407314,347111,4248
1705465893486,407470,347234,4243
1705465893502,407671,347269,4204
1705465893517,407825,347460,4279
1705465893556,408064,347693,4230
1705465893572,408431,347909,4223
1705465893587,408659,348071,4252
1705465893603,408780,348179,4220
1705465893619,408735,348084,4189
1705465893634,408571,348001,4215
1705465893634,408327,347823,4232
1705465893650,408013,347616,4203
1705465893665,407939,347467,4209
1705465893681,407630,347348,4186
1705465893697,407550,347209,4204
1705465893712,407388,347063,4206
1705465893723,407276,347025,4252
1705465893739,407156,346934,4202
1705465893754,407089,346888,4214
1705465893770,407039,346901,4219
1705465893786,406918,346873,4214
1705465893801,406884,346825,4276
1705465893815,406759,346740,4194
1705465893831,406744,346818,4218
1705465893846,406693,346741,4140
1705465893862,406628,346776,4177
1705465893878,406659,346686,4149
1705465893893,406659,346675,4199
1705465893905,406620,346638,4207
1705465893921,406612,346646,4178
1705465893936,406676,346649,4194
1705465893952,406658,346615,4184
1705465893968,406742,346741,4249
1705465893983,406776,346670,4177
1705465894009,406861,346787,4206
1705465894025,406930,346842,4196
1705465894040,407077,346918,4208
1705465894056,407088,347012,4231
1705465894072,407085,347085,4196
1705465894087,407285,347078,4141
1705465894098,407327,347185,4200
1705465894114,407448,347256,4206
1705465894129,407578,347295,4113
1705465894145,407740,347347,4206
1705465894161,407804,347449,4206
1705465894176,407885,347478,4138
1705465894190,407934,347509,4222
1705465894206,408011,347554,4262
1705465894221,408083,347554,4207
1705465894237,408051,347473,4222
1705465894253,408008,347511,4285
1705465894268,407905,347385,4188
1705465894280,407819,347253,4209
1705465894296,407661,347138,4231
1705465894311,407604,347109,4228
1705465894327,407588,346950,4158
1705465894343,407493,346917,4207
1705465894358,407494,346898,4205
1705465894384,407452,346776,4165
1705465894400,407512,346767,4189
1705465894415,407472,346819,4161
1705465894431,407488,346806,4216
1705465894447,407474,346799,4206
1705465894462,407507,346798,4280
1705465894474,407494,346832,4209
1705465894490,407470,346684,4238
1705465894505,407449,346734,4250
1705465894521,407523,346700,4207
1705465894537,407542,346711,4277
1705465894552,407526,346727,4209
1705465894564,407533,346630,4188
1705465894580,407533,346739,4153
1705465894595,407549,346722,4210
1705465894611,407590,346745,4215
1705465894627,407653,346692,4218
1705465894642,407588,346697,4212
1705465894654,407683,346751,4161
1705465894670,407736,346707,4208
1705465894685,407630,346689,4233
1705465894701,407704,346778,4217
1705465894717,407746,346729,4206
1705465894732,407721,346799,4280
1705465894759,407737,346860,4190
1705465894775,407748,346908,4230
1705465894790,407801,346859,4234
1705465894806,407722,346897,4205
1705465894822,407867,346929,4143
1705465894837,407762,346953,4223
1705465894849,407688,346919,4207
1705465894865,407594,346853,4122
1705465894880,407497,346729,4203
1705465894896,407261,346509,4177
1705465894912,407025,346374,4126
1705465894927,406807,346250,4197
1705465894939,406702,346074,4222
1705465894955,406648,345985,4197
1705465894970,406472,345871,4196
1705465894986,406448,345859,4268
1705465895002,406327,345813,4195
1705465895017,406356,345880,4245
1705465895031,406376,345829,4196
1705465895047,406378,345909,4193
1705465895062,406382,345792,4159
1705465895078,406197,345816,4194
1705465895094,406247,345768,4150
1705465895109,406134,345689,4110
1705465895133,406108,345589,4190
1705465895149,405988,345590,4131
1705465895164,406017,345584,4190
1705465895180,405950,345479,4190
1705465895196,405947,345558,4246
1705465895211,406005,345524,4191
1705465895224,405996,345620,4187
1705465895240,405975,345568,4221
1705465895255,406054,345674,4211
1705465895271,406131,345698,4242
1705465895287,406072,345623,4192
1705465895302,406166,345693,4219
1705465895315,406190,345707,4210
1705465895331,406151,345776,4193
1705465895346,406247,345669,4122
1705465895362,406302,345708,4207
1705465895378,406228,345726,4191
1705465895393,406276,345777,4126
1705465895404,406347,345849,4203
1705465895420,406282,345777,4231
1705465895435,406276,345833,4228
1705465895451,406250,345727,4187
1705465895467,406180,345834,4263
1705465895482,406059,345813,4187
1705465895508,406046,345789,4187
1705465895524,405957,345676,4206
1705465895539,405806,345679,4186
1705465895555,405832,345425,4187
1705465895571,405736,345367,4188
1705465895586,405767,345363,4191
1705465895598,405807,345267,4113
1705465895614,405901,345226,4192
1705465895629,405892,345261,4147
1705465895645,405920,345216,4193
1705465895661,405975,345182,4191
1705465895676,405994,345212,4276
1705465895688,406029,345291,4193
1705465895704,405955,345150,4227
1705465895719,405878,345160,4229
1705465895735,405845,345063,4196
1705465895751,405763,345125,4266
1705465895766,405624,345057,4192
1705465895780,405700,345049,4167
1705465895796,405618,345007,4160
1705465895811,405580,344987,4191
1705465895827,405690,344994,4189
1705465895843,405664,344941,4141
1705465895858,405638,344913,4194
1705465895884,405595,344993,4207
1705465895900,405733,345002,4189
1705465895915,405628,344946,4186
1705465895931,405643,344984,4248
1705465895947,405732,344942,4189
1705465895962,405663,345018,4271
1705465895973,405722,345028,4189
1705465895989,405748,345102,4191
1705465896004,405759,345141,4261
1705465896020,405778,345218,4188
1705465896036,405906,345212,4124
1705465896051,405847,345265,4178
1705465896063,405906,345236,4157
1705465896079,406058,345288,4127
1705465896094,406139,345314,4190
1705465896110,406103,345308,4147
1705465896126,406249,345424,4125
1705465896141,406246,345373,4195
1705465896154,406212,345463,4187
1705465896170,406135,345318,4193
1705465896185,406018,345123,4204
1705465896201,405946,345043,4253
1705465896217,405770,344998,4195
1705465896232,405863,344985,4244
1705465896259,405807,344933,4165
1705465896275,405857,344979,4195
1705465896290,405915,344940,4138
1705465896306,405859,344987,4197
1705465896322,405975,345004,4174
1705465896337,405988,344945,4126
1705465896348,405968,344965,4190
1705465896364,406051,344951,4164
1705465896379,406080,344947,4200
1705465896395,406079,344929,4207
1705465896411,406079,344984,4283
1705465896426,406143,344984,4197
1705465896438,406176,344977,4199
1705465896454,406125,345055,4223
1705465896469,406251,345039,4211
1705465896485,406224,345036,4233
1705465896501,406176,345059,4201
1705465896516,406320,345192,4199
1705465896543,406308,345085,4200
1705465896559,406246,345033,4158
1705465896574,406232,345061,4136
1705465896590,406243,345009,4204
1705465896606,406246,345033,4198
1705465896621,406316,345044,4161
1705465896646,406333,345047,4169
1705465896662,406316,345054,4227
1705465896677,406391,345097,4221
1705465896693,406416,345117,4202
1705465896709,406443,345134,4245
1705465896724,406422,345145,4197
1705465896723,406459,345187,4223
1705465896739,406383,345168,4269
1705465896754,406343,345157,4196
1705465896770,406408,345158,4183
1705465896786,406220,345026,4211
1705465896801,406167,344947,4178
1705465896814,406001,344729,4135
1705465896830,405929,344494,4195
1705465896845,405701,344440,4184
1705465896861,405683,344270,4116
1705465896877,405584,344258,4194
1705465896892,405546,344229,4262
1705465896906,405585,344223,4191
1705465896922,405579,344177,4193
1705465896937,405585,344173,4236
1705465896953,405572,344158,4192
1705465896969,405531,344170,4240
1705465896984,405551,344210,4212
1705465897010,405584,344149,4176
1705465897026,405571,344180,4139
1705465897041,405579,344179,4192
1705465897057,405564,344185,4173
1705465897073,405589,344186,4171
1705465897088,405590,344146,4149
1705465897099,405611,344193,4201
1705465897115,405692,344217,4189
1705465897130,405664,344215,4177
1705465897146,405715,344291,4276
1705465897162,405822,344297,4194
1705465897177,405764,344360,4236
1705465897190,405831,344404,4200
1705465897206,405907,344443,4214
1705465897221,405988,344504,4237
1705465897237,405953,344526,4196
1705465897253,406061,344670,4195
1705465897268,406074,344565,4143
1705465897279,406178,344713,4174
1705465897295,406238,344677,4116
1705465897310,406338,344737,4196
1705465897326,406337,344726,4186
1705465897342,406435,344845,4128
1705465897357,406554,344866,4200
1705465897383,406599,344976,4202
1705465897399,406692,344944,4215
1705465897414,406703,344946,4204
1705465897430,406647,345015,4247
1705465897446,406588,344932,4203
1705465897461,406657,344819,4222
1705465897474,406600,344774,4214
1705465897490,406517,344770,4202
1705465897505,406593,344670,4202
1705465897521,406624,344670,4203
1705465897537,406696,344785,4206
1705465897552,406752,344726,4120
1705465897564,406775,344691,4215
1705465897580,406812,344719,4179
1705465897595,406874,344754,4207
1705465897611,406818,344698,4205
1705465897627,406818,344735,4290
1705465897642,406808,344683,4203
1705465897654,406704,344680,4209
1705465897670,406713,344674,4249
1705465897685,406599,344633,4220
1705465897701,406705,344632,4204
1705465897717,406602,344665,4206
1705465897732,406732,344660,4184
1705465897759,406734,344686,4129
1705465897775,406762,344739,4204
1705465897790,406788,344743,4175
1705465897806,406890,344730,4188
1705465897822,406917,344760,4206
1705465897837,406923,344817,4143
1705465897849,406870,344809,4210
1705465897865,406865,344738,4223
1705465897880,406834,344800,4262
1705465897896,406867,344860,4206
1705465897912,406910,344840,4291
1705465897927,406906,344901,4207
1705465897939,406975,344857,4200
1705465897955,406959,344973,4277
1705465897970,406987,345010,4208
1705465897986,407071,344963,4200
1705465898002,406999,344947,4205
1705465898017,407098,345019,4207
1705465898030,407089,344946,4206
1705465898046,407100,344952,4204
1705465898061,406915,344830,4163
1705465898077,406846,344762,4133
1705465898093,406750,344596,4204
1705465898108,406610,344530,4301
1705465898134,406569,344401,4199
1705465898150,406452,344251,4214
1705465898165,406379,344297,4274
1705465898181,406241,344219,4205
1705465898197,406227,344175,4223
1705465898212,406142,344189,4222
1705465898223,406127,344255,4195
1705465898239,406154,344112,4133
1705465898254,406002,344064,4196
1705465898270,405967,344045,4196
1705465898286,405895,343924,4166
1705465898301,405878,343872,4193
1705465898313,405817,343867,4193
1705465898329,405956,343861,4196
1705465898344,405849,343797,4182
1705465898360,405839,343867,4213
1705465898376,405864,343854,4192
1705465898391,405844,343789,4216
1705465898403,405814,343867,4191
1705465898419,405810,343847,4231
1705465898434,405804,343831,4264
1705465898450,405899,343866,4191
1705465898466,405871,343921,4190
1705465898481,405987,343946,4136
1705465898508,405965,343920,4192
1705465898524,406069,343933,4126
1705465898539,406171,343968,4191
1705465898555,406108,343931,4156
1705465898571,406134,344044,4127
1705465898586,406218,344011,4218
1705465898599,406174,344077,4209
1705465898615,406292,344078,4220
1705465898630,406275,344047,4202
1705465898646,406211,344143,4191
1705465898662,406240,344154,4193
1705465898677,406313,344149,4213
1705465898690,406287,344061,4215
1705465898706,406105,344114,4193
1705465898721,406128,344039,4123
1705465898737,405990,343904,4205
1705465898753,405952,343820,4191
1705465898768,405923,343721,4106
1705465898781,405970,343729,4198
1705465898797,405966,343687,4170
1705465898812,405997,343689,4142
1705465898828,406000,343666,4217
1705465898844,406049,343708,4249
1705465898859,406099,343735,4192
1705465898884,405952,343607,4188
1705465898900,406041,343716,4262
1705465898915,406022,343693,4193
1705465898931,405998,343695,4203
1705465898947,405833,343629,4191
1705465898962,405882,343709,4184
1705465898975,405860,343561,4137
1705465898991,405766,343593,4168
1705465899006,405865,343622,4168
1705465899022,405826,343583,4082
1705465899038,405827,343587,4172
1705465899053,405803,343594,4123
1705465899065,405819,343626,4187
1705465899081,405838,343629,4189
1705465899096,405927,343666,4240
1705465899112,405913,343659,4187
1705465899128,405914,343733,4262
1705465899143,405936,343693,4217
1705465899154,405985,343747,4194
1705465899170,406040,343768,4259
1705465899185,405901,343823,4191
1705465899201,406002,343819,4215
1705465899217,406025,343778,4193
1705465899232,406012,343903,4189
1705465899259,406029,343865,4188
1705465899275,406059,343884,4163
1705465899290,406032,343850,4188
1705465899306,406008,343884,4118
1705465899322,406069,343814,4191
1705465899337,405881,343769,4230
1705465899349,405767,343693,4190
1705465899365,405582,343464,4186
1705465899380,405435,343371,4228
1705465899396,405252,343294,4178
1705465899412,405191,343234,4193
1705465899427,405253,343157,4212
1705465899438,405165,343170,4178
1705465899454,405123,343100,4124
1705465899469,405160,343118,4179
1705465899485,405243,343211,4177
1705465899501,405288,343186,4106
1705465899516,405348,343199,4179
1705465899528,405305,343232,4179
1705465899544,405322,343224,4189
1705465899559,405288,343155,4174
1705465899575,405282,343157,4231
1705465899591,405337,343158,4179
1705465899606,405256,343168,4203
1705465899633,405257,343203,4213
1705465899649,405242,343240,4192
1705465899664,405190,343237,4205
1705465899680,405201,343166,4179
1705465899696,405176,343255,4176
1705465899711,405231,343179,4124
1705465899723,405226,343225,4199
1705465899739,405271,343273,4136
1705465899754,405394,343285,4162
1705465899770,405424,343318,4181
1705465899786,405497,343351,4115
1705465899801,405583,343369,4180
1705465899814,405603,343471,4146
1705465899830,405554,343477,4235
1705465899845,405617,343521,4178
1705465899861,405642,343572,4206
1705465899877,405599,343594,4181
1705465899892,405717,343599,4198
1705465899905,405749,343652,4201
1705465899921,405682,343706,4181
1705465899936,405790,343738,4161
1705465899952,405798,343696,4190
1705465899968,405810,343773,4179
1705465899983,405755,343670,4094
1705465900010,405679,343613,4199
1705465900026,405606,343494,4152
1705465900041,405572,343400,4111
1705465900057,405560,343348,4159
1705465900073,405482,343352,4280
1705465900088,405533,343334,4180
1705465900099,405501,343309,4135
1705465900115,405456,343338,4252
1705465900130,405391,343315,4180
1705465900146,405523,343342,4237
1705465900162,405439,343357,4190
1705465900177,405509,343379,4182
1705465900189,405580,343364,4160
1705465900205,405621,343417,4178
1705465900220,405714,343549,4183
1705465900236,405828,343543,4169
1705465900252,405878,343504,4180
1705465900267,405861,343599,4134
1705465900279,405897,343559,4183
1705465900295,405885,343545,4181
1705465900310,405884,343654,4266
1705465900326,405974,343632,4184
1705465900342,405948,343675,4226
1705465900357,405940,343650,4209
1705465900384,406003,343698,4185
1705465900400,406082,343731,4253
1705465900415,405880,343792,4182
1705465900431,406115,343822,4183
1705465900447,406103,343804,4128
1705465900462,406070,343820,4201
1705465900474,406179,343833,4187
1705465900490,406241,343870,4192
1705465900505,406204,343896,4144
1705465900521,406216,343982,4147
1705465900537,406350,343935,4181
1705465900552,406316,343907,4215
1705465900564,406354,344012,4199
1705465900580,406421,343953,4195
1705465900595,406320,343960,4255
1705465900611,406252,343978,4184
1705465900627,406216,343950,4202
1705465900642,406075,343862,4253
1705465900656,405997,343788,4181
1705465900672,406042,343737,4114
1705465900687,406019,343713,4195
1705465900703,406053,343806,4151
1705465900719,406007,343751,4120
1705465900734,406154,343727,4185
1705465900758,406068,343747,4183
1705465900774,406182,343710,4166
1705465900789,406137,343736,4196
1705465900805,406128,343833,4189
1705465900821,406261,343841,4182
1705465900836,406235,343783,4185
1705465900849,406122,343861,4212
1705465900865,406235,343887,4208
1705465900880,406316,343956,4230
1705465900896,406311,343933,4204
1705465900912,406312,343995,4186
1705465900927,406350,343987,4129
1705465900940,406415,344054,4174
1705465900956,406365,344025,4180
1705465900971,406465,344148,4164
1705465900987,406580,344048,4197
1705465901003,406538,344163,4154
1705465901018,406656,344188,4185
1705465901028,406615,344265,4189
1705465901044,406667,344249,4269
1705465901059,406750,344190,4185
1705465901075,406625,344296,4201
1705465901091,406611,344313,4185
1705465901106,406716,344337,4208
1705465901133,406720,344367,4234
1705465901149,406723,344414,4185
1705465901164,406781,344406,4219
1705465901180,406772,344425,4119
1705465901196,406737,344488,4188
1705465901211,406779,344441,4101
1705465901224,406797,344439,4185
1705465901240,406830,344452,4186
1705465901255,406730,344448,4110
1705465901271,406695,344365,4184
1705465901287,406521,344302,4258
1705465901302,406612,344275,4223
1705465901313,406470,344233,4186
1705465901329,406443,344190,4228
1705465901344,406338,344172,4183
1705465901360,406324,344122,4194
1705465901376,406262,344120,4203
1705465901391,406195,344138,4175
1705465901405,406082,344025,4190
1705465901421,405802,343972,4175
1705465901436,405531,343839,4175
1705465901452,405271,343672,4079
1705465901468,405200,343635,4166
1705465901483,405017,343550,4139
1705465901509,404972,343536,4183
1705465901525,404991,343497,4167
1705465901540,404961,343499,4225
1705465901556,405085,343543,4164
1705465901572,405106,343468,4175
1705465901587,405101,343537,4190
1705465901599,405141,343491,4166
1705465901615,405091,343416,4252
1705465901630,404999,343395,4162
1705465901646,404989,343351,4144
1705465901662,404887,343198,4104
1705465901677,404798,343122,4161
1705465901689,404731,343029,4173
1705465901705,404700,342908,4143
1705465901720,404637,342858,4157
1705465901736,404725,342902,4151
1705465901752,404921,342928,4156
1705465901767,404996,342991,4160
1705465901778,405120,343158,4179
1705465901794,405290,343117,4162
1705465901809,405508,343319,4207
1705465901825,405644,343467,4151
1705465901841,405762,343543,4178
1705465901856,405898,343615,4241
1705465901883,405858,343617,4167
1705465901899,405855,343619,4099
1705465901914,405681,343550,4168
1705465901930,405484,343411,4166
1705465901946,405496,343332,4083
1705465901961,405483,343297,4165
1705465901975,405433,343296,4152
1705465901991,405441,343312,4094
1705465902006,405482,343308,4164
1705465902022,405453,343419,4186
1705465902038,405526,343419,4163
1705465902053,405475,343415,4161
1705465902064,405458,343452,4193
1705465902080,405446,343484,4166
1705465902095,405494,343463,4210
1705465902111,405366,343460,4165
1705465902127,405361,343518,4162
1705465902142,405371,343447,4129
1705465902155,405201,343328,4160
1705465902171,405115,343280,4168
1705465902186,405052,343285,4075
1705465902202,405056,343244,4158
1705465902218,404800,343193,4106
1705465902233,404838,343175,4153
1705465902259,404620,343067,4135
1705465902275,404639,343111,4233
1705465902290,404658,343140,4150
1705465902306,404587,343162,4139
1705465902322,404508,343260,4172
1705465902337,404566,343372,4178
1705465902349,404725,343452,4178
1705465902365,404760,343627,4154
1705465902380,405023,343911,4155
1705465902396,405217,343946,4148
1705465902412,405359,344239,4158
1705465902427,405627,344298,4098
1705465902438,405703,344520,4152
1705465902454,405846,344589,4133
1705465902469,405938,344800,4102
1705465902485,406100,344914,4169
1705465902501,406168,345006,4179
1705465902516,406186,345019,4199
1705465902529,406167,345086,4172
1705465902545,406174,345066,4246
1705465902560,406152,345115,4172
1705465902576,406235,345219,4224
1705465902592,406378,345254,4250
1705465902607,406226,345357,4178
1705465902633,406417,345365,4174
1705465902649,406464,345474,4187
1705465902664,406552,345601,4180
1705465902680,406673,345627,4172
1705465902696,406800,345700,4182
1705465902711,406815,345787,4172
1705465902724,406798,345773,4184
1705465902740,406895,345804,4175
1705465902755,406873,345879,4266
1705465902771,407006,345869,4214
1705465902787,406954,345839,4189
1705465902802,406899,345966,4256
1705465902814,406864,346049,4186
1705465902830,406916,346070,4243
1705465902845,406889,346162,4208
1705465902861,407093,346332,4187
1705465902877,407069,346273,4125
1705465902892,407113,346374,4189
1705465902904,407127,346363,4190
1705465902920,407209,346384,4105
1705465902935,407159,346362,4145
1705465902951,407122,346350,4191
1705465902967,407157,346404,4185
1705465902982,407075,346362,4186
1705465903008,407075,346411,4183
1705465903024,407168,346392,4185
1705465903039,407167,346507,4228
1705465903055,407137,346586,4217
1705465903071,407234,346629,4225
1705465903086,407242,346674,4259
1705465903099,407249,346760,4166
1705465903115,407394,346778,4210
1705465903130,407423,346803,4134
1705465903146,407365,346787,4188
1705465903162,407395,346758,4114
1705465903177,407387,346719,4191
1705465903189,407268,346658,4180
1705465903205,407278,346643,4164
1705465903220,407320,346541,4190
1705465903236,407244,346563,4190
1705465903252,407280,346596,4191
1705465903267,407234,346552,4189
1705465903279,407241,346618,4226
1705465903295,407317,346700,4200
1705465903310,407353,346787,4211
1705465903326,407449,346757,4224
1705465903342,407388,346880,4192
1705465903357,407501,346830,4140
1705465903383,407494,346889,4192
1705465903399,407611,346972,4165
1705465903414,407582,346915,4109
1705465903430,407624,346987,4194
1705465903446,407610,346941,4167
1705465903461,407641,346946,4196
1705465903473,407633,346988,4194
1705465903489,407626,347002,4285
1705465903504,407722,347015,4192
1705465903520,407719,346985,4187
1705465903536,407683,347108,4221
1705465903551,407755,347169,4211
1705465903564,407815,347201,4177
1705465903580,407836,347256,4194
1705465903595,407875,347380,4193
1705465903611,407938,347348,4134
1705465903627,407917,347374,4194
1705465903642,407987,347467,4122
1705465903654,408058,347459,4196
1705465903670,408166,347509,4199
1705465903685,408141,347534,4132
1705465903701,408276,347658,4221
1705465903717,408268,347638,4212
1705465903732,408323,347717,4237
1705465903759,408381,347771,4199
1705465903775,408300,347753,4282
1705465903790,408297,347747,4199
1705465903806,408306,347747,4213
1705465903822,408226,347668,4245
1705465903837,408068,347664,4201
1705465903848,408089,347549,4208
1705465903864,408071,347474,4196
1705465903879,408087,347525,4215
1705465903895,408045,347430,4163
1705465903911,408140,347458,4199
1705465903926,408088,347414,4208
1705465903938,408153,347478,4174
1705465903954,408157,347446,4202
1705465903969,408148,347550,4298
1705465903985,408175,347515,4202
1705465904001,408162,347422,4210
1705465904016,408169,347502,4272
1705465904028,408166,347584,4196
1705465904044,408180,347541,4200
1705465904059,408144,347536,4222
1705465904075,408166,347593,4200
1705465904091,408230,347566,4147
1705465904106,408214,347611,4200
1705465904133,408259,347658,4198
1705465904149,408318,347618,4124
1705465904164,408299,347611,4198
1705465904180,408314,347683,4199
1705465904196,408409,347611,4205
1705465904211,408341,347654,4200
1705465904224,408369,347708,4261
1705465904240,408421,347729,4217
1705465904255,408424,347738,4224
1705465904271,408468,347795,4238
1705465904287,408529,347831,4214
1705465904302,408501,347866,4248
1705465904314,408535,347882,4156
1705465904330,408570,347973,4202
1705465904345,408604,347936,4168
1705465904361,408580,347989,4203
1705465904377,408641,348000,4150
1705465904392,408682,347934,4210
1705465904406,408453,347858,4138
1705465904422,408486,347803,4135
1705465904437,408472,347769,4199
1705465904453,408333,347713,4196
1705465904469,408331,347581,4230
1705465904484,408295,347538,4208
1705465904509,408193,347470,4223
1705465904525,408186,347478,4198
1705465904540,408199,347514,4222
1705465904556,408208,347524,4208
1705465904572,408146,347523,4190
1705465904587,408261,347532,4132
1705465904600,408230,347516,4202
1705465904616,408258,347596,4208
1705465904631,408312,347512,4119
1705465904647,408350,347459,4208
1705465904663,408287,347509,4188
1705465904678,408316,347511,4126
1705465904690,408321,347485,4202
1705465904706,408310,347489,4281
1705465904721,408347,347483,4200
1705465904737,408332,347481,4201
1705465904753,408373,347532,4272
1705465904768,408366,347598,4202
1705465904780,408422,347609,4205
1705465904796,408312,347632,4203
1705465904811,408515,347676,4203
1705465904827,408517,347678,4149
1705465904843,408522,347720,4201
1705465904858,408570,347759,4186
1705465904884,408572,347727,4225
1705465904900,408597,347698,4146
1705465904915,408601,347791,4137
1705465904931,408639,347745,4202
1705465904947,408628,347805,4204
1705465904962,408687,347818,4283
1705465904974,408788,347869,4208
1705465904990,408746,347900,4246
1705465905005,408660,347908,4233
1705465905021,408777,347962,4204
1705465905037,408711,347833,4275
1705465905052,408510,347820,4203
1705465905064,408510,347644,4212
1705465905080,408229,347476,4146
1705465905095,408188,347434,4203
1705465905111,408070,347223,4196
1705465905127,408104,347182,4199
1705465905142,407913,347040,4200
1705465905154,407864,346977,4175
1705465905170,407837,346915,4196
1705465905185,407746,346906,4242
1705465905201,407770,346851,4240
1705465905217,407750,346788,4200
1705465905232,407687,346853,4258
1705465905258,407661,346861,4198
1705465905274,407688,346850,4248
1705465905289,407584,346808,4254
1705465905305,407567,346793,4196
1705465905321,407630,346765,4145
1705465905336,407559,346745,4195
1705465905349,407611,346802,4189
1705465905365,407617,346714,4137
1705465905380,407696,346707,4198
1705465905396,407671,346807,4222
1705465905412,407725,346816,4202
1705465905427,407754,346764,4199
1705465905439,407688,346860,4237
1705465905455,407767,346892,4197
1705465905470,407736,346809,4211
1705465905486,407748,346891,4234
1705465905502,407669,346895,4215
1705465905517,407792,346892,4274
1705465905529,407794,346920,4198
1705465905545,407847,347026,4208
1705465905560,407875,347025,4144
1705465905576,407928,347128,4199
1705465905592,407913,347101,4119
1705465905607,407981,347100,4201
1705465905633,408008,347154,4195
1705465905649,407945,347123,4138
1705465905664,407892,347038,4201
1705465905680,407721,346875,4200
1705465905696,407486,346730,4229
1705465905711,407438,346499,4196
1705465905723,407229,346408,4182
1705465905739,407106,346336,4196
1705465905754,406993,346180,4206
1705465905770,406889,346083,4283
1705465905786,406695,346070,4191
1705465905801,406713,345962,4143
1705465905814,406686,345892,4192
1705465905830,406656,345980,4194
1705465905845,406679,345886,4107
1705465905861,406689,345902,4189
1705465905877,406669,345893,4137
1705465905892,406681,345872,4123
1705465905904,406652,345868,4191
1705465905920,406678,345833,4281
1705465905935,406698,345830,4192
1705465905951,406619,345796,4204
1705465905967,406687,345849,4245
1705465905982,406580,345865,4194
1705465906008,406654,345866,4215
1705465906024,406684,345894,4217
1705465906039,406695,346007,4195
1705465906055,406698,345937,4176
1705465906071,406652,345970,4195
1705465906086,406725,346032,4195
1705465906099,406761,345990,4177
1705465906115,406897,346044,4198
1705465906130,406812,346073,4150
1705465906146,406894,346079,4212
1705465906162,406839,346080,4200
1705465906177,406951,346174,4260
1705465906189,407037,346244,4169
1705465906205,406960,346261,4226
1705465906220,406923,346255,4222
1705465906236,407045,346259,4199
1705465906252,407138,346357,4211
1705465906267,407134,346375,4198
1705465906280,407124,346364,4249
1705465906296,407002,346311,4143
1705465906311,406832,346197,4198
1705465906327,406689,346039,4201
1705465906343,406603,345795,4203
1705465906358,406403,345586,4136
1705465906383,406230,345517,4146
1705465906399,406182,345413,4192
1705465906414,406025,345299,4218
1705465906430,405924,345234,4192
1705465906446,405923,345145,4203
1705465906461,405827,345091,4269
1705465906474,405794,345079,4195
1705465906490,405783,345073,4231
1705465906505,405818,345080,4263
1705465906521,405722,345077,4188
1705465906537,405759,345056,4143
1705465906552,405639,345016,4205
1705465906566,405747,345097,4192
1705465906582,405733,345005,4106
1705465906597,405749,344996,4206
1705465906613,405714,344995,4164
1705465906629,405749,345081,4115
1705465906644,405746,344976,4194
1705465906654,405683,345085,4218
1705465906670,405851,345112,4192
1705465906685,405800,345087,4192
1705465906701,405818,345124,4265
1705465906717,405806,345184,4193
1705465906732,405858,345213,4241
1705465906759,405895,345228,4160
1705465906775,405948,345308,4195
1705465906790,405942,345345,4160
1705465906806,406013,345337,4193
1705465906822,406034,345358,4159
1705465906837,406099,345456,4114
1705465906849,406171,345467,4202
1705465906865,406198,345541,4133
1705465906880,406190,345576,4199
1705465906896,406279,345576,4201
1705465906912,406241,345693,4236
1705465906927,406325,345605,4198
1705465906939,406272,345617,4222
1705465906955,406039,345526,4227
1705465906970,405916,345397,4244
1705465906986,405768,345206,4239
1705465907002,405565,345141,4193
1705465907017,405531,344991,4215
1705465907028,405471,344877,4200
1705465907044,405313,344889,4194
1705465907059,405353,344801,4110
1705465907075,405445,344751,4153
1705465907091,405331,344687,4194
1705465907106,405305,344723,4126
1705465907134,405303,344724,4195
1705465907150,405281,344712,4259
1705465907165,405353,344759,4217
1705465907181,405283,344709,4202
1705465907197,405265,344705,4267
1705465907212,405235,344758,4195
1705465907223,405287,344713,4210
1705465907239,405328,344739,4228
1705465907254,405271,344828,4197
1705465907270,405346,344830,4178
1705465907286,405317,344786,4194
1705465907301,405389,344919,4196
1705465907315,405460,344851,4111
1705465907331,405525,344916,4177
1705465907346,405494,344962,4171
1705465907362,405473,344979,4196
1705465907378,405558,344967,4202
1705465907393,405618,345076,4257
1705465907405,405770,345133,4190
1705465907421,405746,345155,4214
1705465907436,405772,345209,4238
1705465907452,405738,345210,4200
1705465907468,405588,345185,4274
1705465907483,405330,345059,4198
1705465907508,405326,345079,4198
1705465907524,405136,344947,4129
1705465907539,404998,344849,4193
1705465907555,405045,344866,4190
1705465907571,405049,344859,4195
1705465907586,404999,344825,4192
1705465907599,405028,344750,4192
1705465907615,404985,344646,4193
1705465907630,404888,344502,4205
1705465907646,404825,344488,4230
1705465907662,404853,344374,4191
1705465907677,404838,344399,4280
1705465907689,404716,344337,4196
1705465907705,404725,344304,4208
1705465907720,404673,344260,4267
1705465907736,404506,344269,4198
1705465907752,404625,344356,4130
1705465907767,404653,344327,4193
1705465907780,404668,344353,4206
1705465907796,404601,344352,4114
1705465907811,404631,344374,4198
1705465907827,404642,344314,4156
1705465907843,404652,344389,4194
1705465907858,404602,344324,4198
1705465907883,404577,344330,4188
1705465907899,404626,344387,4197
1705465907914,404629,344351,4198
1705465907930,404602,344452,4234
1705465907946,404620,344474,4199
1705465907961,404757,344560,4228
1705465907974,404771,344642,4201
1705465907990,404822,344731,4200
1705465908005,404897,344691,4147
1705465908021,405039,344748,4204
1705465908037,405093,344836,4176
1705465908052,405247,344899,4121
1705465908064,405382,345000,4209
1705465908080,405597,345150,4166
1705465908095,405776,345305,4213
1705465908111,405773,345298,4226
1705465908127,405847,345411,4262
1705465908142,405902,345413,4213
1705465908155,405789,345451,4211
1705465908171,405713,345479,4238
1705465908186,405773,345530,4223
1705465908202,405782,345521,4237
1705465908218,405583,345416,4208
1705465908233,405435,345371,4209
1705465908259,405186,345060,4204
1705465908275,404889,344966,4203
1705465908290,404817,344714,4124
1705465908306,404634,344583,4238
1705465908322,404524,344486,4197
1705465908337,404390,344348,4136
1705465908349,404262,344240,4202
1705465908365,404205,344117,4235
1705465908380,404182,344100,4225
1705465908396,404127,344031,4195
1705465908412,404058,344051,4249
1705465908427,404089,344084,4199
1705465908439,404130,344134,4222
1705465908455,404093,344054,4269
1705465908470,404101,344114,4225
1705465908486,404099,344039,4218
1705465908502,404038,343996,4213
1705465908517,404086,344102,4210
1705465908530,404206,344049,4133
1705465908546,404287,344096,4199
1705465908561,404319,344154,4191
1705465908577,404359,344224,4130
1705465908593,404383,344254,4194
1705465908608,404386,344262,4285
1705465908634,404410,344240,4175
1705465908650,404394,344258,4203
1705465908665,404418,344262,4265
1705465908681,404361,344242,4216
1705465908697,404516,344322,4227
1705465908712,404379,344335,4223
1705465908725,404532,344358,4202
1705465908741,404614,344351,4146
1705465908756,404612,344479,4205
1705465908772,404758,344475,4177
1705465908788,404828,344529,4140
1705465908803,404889,344559,4170
1705465908814,404911,344639,4207
1705465908830,405038,344657,4207
1705465908845,405003,344657,4209
1705465908861,404977,344728,4289
1705465908877,404996,344570,4205
1705465908892,404816,344577,4251
1705465908904,404722,344395,4194
1705465908920,404600,344302,4227
1705465908935,404468,344177,4276
1705465908951,404298,344058,4201
1705465908967,404363,344013,4201
1705465908982,404280,343894,4198
1705465909009,404238,343883,4183
1705465909025,404268,343852,4119
1705465909040,404305,343836,4203
1705465909056,404296,343877,4201
1705465909072,404304,343926,4136
1705465909087,404426,343836,4203
1705465909098,404401,343912,4206
1705465909114,404450,343931,4243
1705465909129,404418,343843,4203
1705465909145,404477,343901,4286
1705465909161,404412,343904,4206
1705465909176,404455,343947,4223
1705465909189,404524,344017,4218
1705465909205,404506,344057,4207
1705465909220,404626,343977,4155
1705465909236,404585,344002,4207
1705465909252,404601,344048,4205
1705465909267,404539,344044,4106
1705465909280,404567,343967,4204
1705465909296,404514,343993,4178
1705465909311,404467,343990,4234
1705465909327,404473,343838,4204
1705465909343,404446,343906,4283
1705465909358,404442,343902,4202
1705465909383,404378,343915,4200
1705465909399,404343,343882,4260
1705465909414,404333,343894,4218
1705465909430,404297,343898,4178
1705465909446,404176,343878,4199
1705465909461,404235,343904,4197
1705465909473,404266,343815,4117
1705465909489,404163,343864,4201
1705465909504,404221,343819,4168
1705465909520,404123,343806,4188
1705465909536,404059,343674,4192
1705465909551,403869,343622,4130
1705465909563,403785,343440,4192
1705465909579,403622,343216,4212
1705465909594,403553,343182,4249
1705465909610,403436,343087,4192
1705465909626,403362,343019,4273
1705465909641,403296,343009,4190
1705465909668,403266,342968,4177
1705465909684,403332,342984,4229
1705465909699,403239,342984,4191
1705465909715,403312,342992,4186
1705465909731,403356,342984,4174
1705465909746,403325,343068,4185
1705465909746,403314,342996,4167
1705465909762,403402,342969,4187
1705465909777,403330,342873,4144
1705465909793,403340,342994,4118
1705465909809,403374,342892,4184
1705465909824,403333,342970,4260
1705465909848,403390,342944,4196
1705465909864,403394,342929,4198
1705465909879,403381,343006,4255
1705465909895,403364,343027,4186
1705465909911,403419,343039,4237
1705465909926,403464,343033,4208
1705465909940,403500,343121,4189
1705465909956,403611,343179,4127
1705465909971,403574,343231,4188
1705465909987,403726,343321,4188
1705465910003,403784,343338,4118
1705465910018,403918,343349,4187
1705465910031,403966,343446,4207
1705465910047,404018,343466,4191
1705465910062,404064,343484,4194
1705465910078,404142,343579,4228
1705465910094,404236,343619,4190
1705465910109,404194,343619,4183
1705465910134,404269,343754,4212
1705465910150,404342,343791,4204
1705465910165,404468,343890,4266
1705465910181,404514,343930,4212
1705465910197,404549,343991,4212
1705465910212,404532,343872,4141
1705465910224,404481,343802,4192
1705465910240,404515,343753,4136
1705465910255,404636,343715,4201
1705465910271,404571,343763,4159
1705465910287,404580,343731,4158
1705465910302,404679,343757,4202
1705465910316,404577,343818,4216
1705465910332,404735,343922,4232
1705465910347,404821,343875,4213
1705465910363,404981,343989,4234
1705465910379,404989,344006,4205
1705465910394,405018,344080,4229
1705465910403,405044,344054,4231
1705465910419,405021,344077,4209
1705465910434,405115,344031,4141
1705465910450,405259,343977,4220
1705465910466,405259,343969,4210
1705465910481,405442,343995,4127
1705465910509,405543,344055,4199
1705465910525,405761,344110,4222
1705465910540,406112,344278,4146
1705465910556,406566,344414,4224
1705465910572,407079,344655,4280
1705465910587,407794,344998,4237
1705465910600,408372,345217,4246
1705465910616,408914,345529,4328
1705465910631,409280,345688,4257
1705465910647,409517,345810,4289
1705465910663,409710,345790,4286
1705465910678,409979,345958,4265
1705465910688,410150,345979,4264
1705465910704,410148,345972,4267
1705465910719,410197,346004,4247
1705465910735,410155,345877,4181
1705465910751,410096,345831,4265
1705465910766,409849,345825,4196
1705465910780,409669,345705,4243
1705465910796,409496,345713,4254
1705465910811,409457,345651,4317
1705465910827,409353,345611,4254
1705465910843,409173,345442,4296
1705465910858,409004,345418,4254
1705465910883,408927,345288,4287
1705465910899,408752,345141,4294
1705465910914,408575,345044,4250
1705465910930,408516,344907,4274
1705465910946,408388,344853,4207
1705465910961,408273,344829,4243
1705465910973,408214,344690,4253
1705465910989,408170,344670,4242
1705465911004,408073,344602,4219
1705465911020,408020,344568,4202
1705465911036,408015,344506,4239
1705465911051,407984,344459,4288
1705465911063,407933,344485,4257
1705465911079,407830,344447,4263
1705465911094,407884,344493,4314
1705465911110,407844,344490,4240
1705465911126,407912,344447,4263
1705465911141,408013,344525,4255
1705465911154,408085,344533,4249
1705465911170,408110,344574,4191
1705465911185,408176,344579,4245
1705465911201,408234,344627,4276
1705465911217,408241,344612,4164
1705465911232,408276,344542,4246
1705465911259,408234,344585,4239
1705465911275,408270,344581,4241
1705465911290,408228,344537,4245
1705465911306,408243,344612,4283
1705465911322,408350,344594,4256
1705465911337,408325,344591,4257
1705465911349,408425,344660,4249
1705465911365,408535,344736,4264
1705465911380,408680,344742,4317
1705465911396,408787,344765,4252
1705465911412,408887,344944,4252
1705465911427,409083,344912,4243
1705465911438,409212,345042,4257
1705465911454,409418,345065,4214
1705465911469,409553,345086,4245
1705465911485,409614,345009,4282
1705465911501,409640,344974,4198
1705465911516,409632,344890,4261
1705465911529,409459,344825,4271
1705465911545,409305,344633,4288
1705465911560,409035,344486,4259
1705465911576,408842,344438,4255
1705465911592,408531,344247,4254
1705465911607,408385,344197,4262
1705465911620,408330,344132,4267
1705465911636,408104,344095,4248
1705465911651,408168,344042,4166
1705465911667,408174,344023,4244
1705465911683,408123,344071,4229
1705465911698,408149,344034,4233
1705465911723,408249,344016,4246
1705465911739,408185,343968,4207
1705465911754,408141,344025,4178
1705465911770,408145,343961,4248
1705465911786,408161,343963,4344
1705465911801,408178,343914,4248
1705465911813,408114,343987,4286
1705465911829,408071,343939,4295
1705465911844,408078,343969,4248
1705465911860,408111,343975,4260
1705465911876,408103,343908,4269
1705465911891,408144,344052,4247
1705465911904,408219,343982,4227
1705465911920,408211,344007,4248
1705465911935,408287,344047,4248
1705465911951,408326,344114,4167
1705465911967,408349,344001,4248
1705465911982,408391,344119,4200
1705465912008,408486,344111,4272
1705465912024,408537,344069,4253
1705465912039,408504,344121,4331
1705465912055,408492,344074,4249
1705465912071,408463,344088,4274
1705465912086,408381,344093,4273
1705465912098,408422,344156,4248
1705465912114,408469,344066,4319
1705465912129,408305,344064,4247
1705465912145,408395,344144,4248
1705465912161,408320,344007,4190
1705465912176,408132,343963,4245
1705465912190,408020,343778,4238
1705465912206,407999,343707,4250
1705465912221,407861,343596,4224
1705465912237,407797,343541,4208
1705465912253,407724,343435,4245
1705465912268,407651,343421,4237
1705465912280,407658,343417,4241
1705465912296,407678,343357,4254
1705465912311,407665,343398,4313
1705465912327,407660,343402,4244
1705465912343,407693,343410,4266
1705465912358,407662,343375,4288
1705465912383,407532,343439,4243
1705465912399,407625,343351,4199
1705465912414,407543,343383,4254
1705465912430,407581,343360,4241
1705465912446,407555,343331,4152
1705465912461,407657,343308,4239
1705465912475,407659,343315,4231
1705465912491,407628,343316,4218
1705465912506,407599,343289,4244
1705465912522,407537,343380,4263
1705465912538,407594,343347,4240
1705465912553,407522,343280,4244
1705465912564,407507,343301,4263
1705465912580,407436,343347,4240
1705465912595,407524,343435,4289
1705465912611,407588,343428,4261
1705465912627,407514,343424,4239
1705465912642,407549,343400,4185
1705465912654,407528,343439,4242
1705465912670,407531,343467,4215
1705465912685,407522,343438,4154
1705465912701,407573,343436,4239
1705465912717,407604,343507,4204
1705465912732,407640,343513,4239
1705465912759,407725,343522,4243
1705465912775,407721,343575,4323
1705465912790,407802,343567,4221
1705465912806,407772,343582,4239
1705465912822,407659,343584,4258
1705465912837,407718,343606,4263
1705465912849,407541,343503,4267
1705465912865,407389,343364,4239
1705465912880,407407,343307,4260
1705465912896,407334,343217,4160
1705465912912,407180,343225,4235
1705465912927,407162,343102,4153
1705465912940,407139,343044,4229
1705465912956,407190,343019,4236
1705465912971,407174,343059,4167
1705465912987,407204,343058,4253
1705465913003,407095,343024,4279
1705465913018,407125,343046,4235
1705465913030,407092,342985,4224
1705465913046,407056,342983,4291
1705465913061,407031,342980,4235
1705465913077,407112,343040,4248
1705465913093,407100,342951,4282
1705465913108,407037,343040,4236
1705465913134,407092,342978,4233
1705465913150,407001,343034,4236
1705465913165,407179,343108,4238
1705465913181,407201,343074,4147
1705465913197,407282,343051,4236
1705465913212,407224,343110,4211
1705465913224,407235,343087,4234
1705465913240,407276,343069,4223
1705465913255,407217,343103,4320
1705465913271,407291,343129,4235
1705465913287,407288,343113,4251
1705465913302,407329,343195,4248
1705465913313,407334,343164,4237
1705465913329,407411,343206,4314
1705465913344,407273,343263,4237
1705465913360,407409,343311,4239
1705465913376,407438,343265,4182
1705465913391,407388,343366,4237
1705465913405,407468,343299,4236
1705465913421,407528,343346,4237
1705465913436,407526,343294,4237
1705465913452,407512,343270,4236
1705465913468,407534,343225,4237
1705465913483,407442,343204,4246
1705465913496,407296,343167,4274
1705465913512,407254,342987,4234
1705465913527,407141,342970,4290
1705465913543,407082,342907,4237
1705465913559,407068,342850,4244
1705465913574,406998,342804,4280
1705465913598,406899,342783,4236
1705465913614,406972,342797,4189
1705465913629,406981,342758,4242
1705465913645,406992,342860,4233
1705465913661,407025,342790,4149
1705465913676,407145,342831,4236
1705465913689,407071,342824,4231
1705465913705,407099,342801,4161
1705465913720,407139,342744,4237
1705465913736,407126,342823,4309
1705465913752,407179,342744,4240
1705465913767,407115,342732,4236
1705465913781,407076,342811,4265
1705465913797,407047,342834,4235
1705465913812,407132,342718,4258
1705465913828,407137,342798,4263
1705465913844,407127,342924,4234
1705465913859,407165,342849,4219
1705465913883,407115,342851,4209
1705465913899,407185,342876,4238
1705465913914,407246,342882,4152
1705465913930,407294,342872,4255
1705465913946,407267,342931,4159
1705465913961,407340,342920,4237
1705465913973,407291,342880,4248
1705465913989,407418,342971,4303
1705465914004,407426,343003,4240
1705465914020,407433,342944,4224
1705465914036,407387,343061,4288
1705465914051,407524,343070,4280
1705465914079,407497,343096,4231
1705465914095,407443,343141,4238
1705465914110,407578,343184,4238
1705465914126,407494,343118,4202
1705465914142,407495,343132,4239
1705465914157,407412,343078,4224
1705465914154,407331,342971,4243
1705465914170,407262,342839,4196
1705465914185,407202,342747,4172
1705465914201,407205,342662,4243
1705465914217,407090,342585,4256
1705465914232,407091,342558,4261
1705465914259,407017,342503,4234
1705465914275,406985,342504,4325
1705465914290,406961,342482,4235
1705465914306,406977,342471,4238
1705465914322,406958,342465,4312
1705465914337,406885,342538,4236
1705465914350,406963,342460,4235
1705465914366,406894,342449,4235
1705465914381,406940,342475,4237
1705465914397,406891,342422,4159
1705465914413,406997,342384,4240
1705465914428,406917,342454,4226
1705465914439,406908,342420,4261
1705465914455,406920,342384,4234
1705465914470,406939,342449,4319
1705465914486,406964,342467,4236
1705465914502,406945,342404,4237
1705465914517,406921,342485,4306
1705465914529,406983,342489,4236
1705465914545,406984,342526,4330
1705465914560,406973,342571,4256
1705465914576,407001,342643,4234
1705465914592,407072,342555,4181
1705465914607,407006,342588,4254
1705465914633,407077,342621,4232
1705465914649,407151,342626,4153
1705465914664,407171,342671,4193
1705465914680,407159,342672,4241
1705465914696,407215,342697,4235
1705465914711,407253,342696,4236
1705465914725,407227,342684,4237
1705465914741,407303,342745,4241
1705465914756,407306,342757,4280
1705465914772,407354,342795,4267
1705465914788,407329,342803,4271
1705465914803,407252,342725,4311
1705465914814,407123,342632,4255
1705465914830,407064,342594,4254
1705465914845,406993,342482,4183
1705465914861,406916,342424,4234
1705465914877,406848,342331,4152
1705465914892,406884,342312,4236
1705465914904,406805,342266,4267
1705465914920,406736,342197,4194
1705465914935,406793,342198,4237
1705465914951,406617,342093,4231
1705465914967,406615,342099,4254
1705465914982,406486,342010,4227
1705465915009,406388,341999,4212
1705465915025,406315,342001,4232
1705465915040,406292,342011,4254
1705465915056,406247,341931,4264
1705465915072,406128,341941,4227
1705465915087,406106,341885,4176
1705465915099,406124,341877,4228
1705465915115,406081,341945,4228
1705465915130,406033,341866,4147
1705465915146,406132,341873,4245
1705465915162,406092,341864,4163
1705465915177,406134,341898,4224
1705465915189,406111,341908,4224
1705465915205,406164,341990,4302
1705465915220,406262,341996,4227
1705465915236,406282,341950,4217
1705465915252,406219,342072,4266
1705465915267,406272,342065,4245
1705465915279,406339,342077,4213
1705465915295,406231,342116,4230
1705465915310,406370,342222,4230
1705465915326,406402,342163,4167
1705465915342,406368,342259,4229
1705465915357,406476,342254,4185
1705465915371,406451,342277,4248
1705465915387,406551,342254,4211
1705465915402,406580,342316,4167
1705465915418,406620,342285,4229
1705465915434,406581,342246,4243
1705465915449,406552,342259,4286
1705465915474,406452,342200,4228
1705465915490,406366,342094,4308
1705465915505,406149,341997,4228
1705465915521,406174,341846,4230
1705465915537,406082,341785,4272
1705465915552,405977,341803,4228
1705465915565,406013,341722,4227
1705465915581,406019,341669,4237
1705465915596,405948,341742,4227
1705465915612,405987,341640,4240
1705465915628,406044,341654,4226
1705465915643,406060,341645,4189
1705465915669,406017,341662,4204
1705465915685,406057,341641,4225
1705465915700,406001,341696,4323
1705465915716,406027,341679,4227
1705465915732,406024,341642,4262
1705465915747,405985,341672,4283
1705465915759,405941,341704,4226
1705465915775,406012,341699,4273
1705465915790,405987,341696,4249
1705465915806,406004,341815,4215
1705465915822,406052,341736,4176
1705465915837,406029,341757,4227
1705465915849,406078,341782,4226
1705465915865,406119,341767,4152
1705465915880,406189,341747,4229
1705465915896,406127,341814,4228
1705465915912,406200,341904,4191
1705465915927,406129,341837,4213
1705465915940,406179,341902,4264
1705465915956,406325,341895,4228
1705465915971,406271,341969,4258
1705465915987,406227,341965,4268
1705465916003,406323,342002,4238
1705465916018,406328,342057,4290
1705465916028,406354,342047,4227
1705465916044,406453,342154,4230
1705465916059,406463,342135,4179
1705465916075,406433,342129,4227
1705465916091,406436,342130,4112
1705465916106,406486,342102,4237
1705465916133,406390,341990,4168
1705465916149,406236,341981,4159
1705465916164,406244,341810,4227
1705465916180,406083,341768,4222
1705465916196,406042,341678,4234
1705465916211,405918,341543,4224
1705465916225,405947,341561,4251
1705465916241,405849,341531,4223
1705465916256,405897,341473,4223
1705465916272,405877,341464,4251
1705465916288,405793,341563,4225
1705465916303,405915,341549,4172
1705465916314,405879,341527,4196
1705465916330,405943,341622,4224
1705465916345,405858,341508,4155
1705465916361,405964,341508,4224
1705465916377,405920,341580,4232
1705465916392,405982,341527,4155
1705465916404,405936,341520,4202
1705465916420,405978,341558,4309
1705465916435,406097,341583,4225
1705465916451,406025,341553,4227
1705465916467,406067,341630,4296
1705465916482,406052,341699,4224
1705465916508,406146,341687,4228
1705465916524,406103,341715,4251
1705465916539,406206,341808,4252
1705465916555,406222,341797,4176
1705465916571,406211,341835,4228
1705465916586,406295,341845,4206
1705465916599,406304,341819,4237
1705465916615,406409,341852,4186
1705465916630,406401,341907,4164
1705465916646,406492,341960,4227
1705465916662,406465,341945,4238
1705465916677,406443,342012,4312
1705465916688,406534,341991,4230
1705465916704,406536,342053,4271
1705465916719,406480,342086,4255
1705465916735,406593,342087,4231
1705465916751,406549,342142,4298
1705465916766,406470,342159,4232
1705465916779,406566,342029,4229
1705465916795,406424,341996,4191
1705465916810,406287,341894,4227
1705465916826,406216,341755,4228
1705465916842,406181,341671,4224
1705465916857,406106,341579,4225
1705465916884,406070,341574,4224
1705465916900,406076,341503,4228
1705465916915,405992,341441,4268
1705465916931,406013,341494,4265
1705465916947,405977,341486,4247
1705465916962,405996,341499,4296
1705465916975,405940,341510,4226
1705465916991,406051,341501,4245
1705465917006,405974,341518,4247
1705465917022,405894,341557,4226
1705465917038,405995,341509,4170
1705465917053,405867,341491,4223
1705465917064,406001,341455,4190
1705465917080,406023,341506,4133
1705465917095,406094,341518,4225
1705465917111,405979,341607,4198
1705465917127,406080,341487,4224
1705465917142,406075,341532,4225
1705465917155,406096,341564,4274
1705465917171,406126,341602,4223
1705465917186,406128,341579,4237
1705465917202,406171,341679,4266
1705465917218,406176,341713,4241
1705465917233,406213,341697,4302
1705465917245,406281,341716,4244
1705465917261,406282,341824,4224
1705465917276,406302,341782,4171
1705465917292,406313,341802,4235
1705465917308,406407,341873,4185
1705465917323,406396,341872,4215
1705465917348,406435,341897,4228
1705465917364,406480,341892,4157
1705465917379,406603,341995,4227
1705465917395,406570,342043,4231
1705465917411,406583,341995,4282
1705465917426,406619,341972,4227
1705465917438,406587,342012,4227
1705465917454,406501,341947,4226
1705465917469,406412,341962,4238
1705465917485,406388,341841,4273
1705465917501,406229,341821,4225
1705465917516,406215,341762,4161
1705465917531,406170,341624,4230
1705465917547,406131,341659,4225
1705465917562,406178,341595,4142
1705465917578,406219,341596,4224
1705465917594,406175,341576,4228
1705465917609,406187,341555,4154
1705465917634,406222,341582,4223
1705465917650,406227,341581,4285
1705465917665,406247,341571,4223
1705465917681,406225,341591,4266
1705465917697,406276,341625,4280
1705465917712,406172,341616,4225
1705465917724,406231,341626,4225
1705465917740,406209,341588,4195
1705465917755,406262,341705,4223
1705465917771,406336,341653,4211
1705465917787,406295,341656,4224
1705465917802,406288,341752,4228
1705465917816,406342,341712,4209
1705465917832,406419,341692,4224
1705465917847,406376,341672,4178
1705465917863,406350,341771,4233
1705465917879,406388,341702,4224
1705465917894,406492,341762,4308
1705465917905,406519,341793,4193
1705465917921,406493,341804,4248
1705465917936,406443,341835,4241
1705465917952,406478,341871,4224
1705465917968,406491,341867,4298
1705465917983,406462,341941,4224
1705465918009,406515,341944,4217
1705465918025,406551,341917,4169
1705465918040,406491,342055,4223
1705465918056,406614,341990,4225
1705465918072,406714,342057,4228
1705465918087,406617,342030,4183
1705465918099,406639,342087,4179
1705465918115,406728,342052,4225
1705465918130,406621,342023,4248
1705465918146,406532,341894,4260
1705465918162,406432,341784,4235
1705465918177,406321,341698,4278
1705465918189,406232,341659,4222
1705465918205,406213,341593,4244
1705465918220,406183,341552,4293
1705465918236,406090,341544,4212
1705465918252,406159,341500,4174
1705465918267,406131,341448,4221
1705465918279,406158,341498,4229
1705465918295,406176,341456,4151
1705465918310,406130,341483,4220
1705465918326,406133,341493,4207
1705465918342,406087,341495,4146
1705465918357,406187,341466,4232
1705465918384,406218,341552,4247
1705465918400,406278,341578,4225
1705465918415,406223,341467,4222
1705465918431,406212,341583,4294
1705465918447,406154,341610,4249
1705465918462,406239,341636,4268
1705465918473,406275,341618,4221
1705465918489,406226,341623,4225
1705465918504,406209,341613,4200
1705465918520,406239,341652,4221
1705465918536,406272,341678,4218
1705465918551,406342,341697,4140
1705465918564,406332,341701,4222
1705465918580,406322,341713,4153
1705465918595,406434,341734,4222
1705465918611,406364,341734,4225
1705465918627,406418,341805,4306
1705465918642,406489,341735,4221
1705465918655,406438,341859,4226
1705465918671,406450,341861,4251
1705465918686,406513,341869,4266
1705465918702,406552,341898,4270
1705465918718,406427,341958,4220
1705465918733,406592,342029,4217
1705465918758,406598,341955,4225
1705465918774,406601,342091,4222
1705465918789,406615,342004,4138
1705465918805,406597,341937,4218
1705465918821,406512,341887,4223
1705465918836,406406,341747,4155
1705465918849,406364,341767,4244
1705465918865,406242,341670,4266
1705465918880,406217,341573,4260
1705465918896,406202,341501,4221
1705465918912,406165,341525,4294
1705465918927,406029,341526,4218
1705465918939,406144,341564,4264
1705465918955,406121,341472,4251
1705465918970,406088,341613,4217
1705465918986,406173,341547,4258
1705465919002,406131,341518,4218
1705465919017,406149,341509,4222
1705465919029,406123,341513,4184
1705465919045,406154,341459,4217
1705465919060,406131,341576,4196
1705465919076,406116,341437,4218
1705465919092,406161,341463,4215
1705465919107,406072,341514,4301
1705465919134,406142,341520,4193
1705465919150,406100,341520,4226
1705465919165,406117,341530,4258
1705465919181,406050,341566,4205
1705465919197,406121,341564,4307
1705465919212,406038,341592,4220
1705465919224,406169,341618,4219
1705465919240,406126,341636,4164
1705465919255,406145,341669,4213
1705465919271,406203,341656,4181
1705465919287,406229,341670,4204
1705465919302,406240,341681,4217
1705465919313,406251,341711,4217
1705465919329,406333,341744,4217
1705465919344,406245,341732,4232
1705465919360,406308,341772,4296
1705465919376,406298,341780,4220
1705465919391,406311,341867,4298
1705465919404,406331,341866,4217
1705465919420,406308,341827,4227
1705465919435,406314,341874,4285
1705465919451,406187,341862,4218
1705465919467,406211,341813,4150
1705465919482,406110,341708,4197
1705465919508,406014,341666,4187
1705465919524,405970,341532,4130
1705465919539,405940,341490,4212
1705465919555,405775,341408,4215
1705465919571,405823,341343,4171
1705465919586,405735,341310,4215
1705465919600,405649,341286,4199
1705465919616,405733,341289,4215
1705465919631,405635,341142,4226
1705465919647,405658,341250,4285
1705465919663,405549,341278,4212
1705465919678,405659,341255,4265
1705465919689,405632,341253,4186
1705465919705,405575,341352,4211
1705465919720,405631,341228,4159
1705465919736,405592,341242,4214
1705465919752,405600,341292,4193
1705465919767,405647,341246,4125
1705465919780,405694,341229,4212
1705465919796,405626,341260,4166
1705465919811,405810,341278,4211
1705465919827,405617,341314,4223
1705465919843,405683,341321,4293
1705465919858,405801,341349,4212
1705465919884,405777,341388,4214
1705465919900,405725,341376,4246
1705465919915,405864,341421,4225
1705465919931,405838,341440,4238
1705465919947,405848,341509,4214
1705465919962,405848,341571,4212
1705465919974,405933,341588,4210
1705465919990,405937,341683,4214
1705465920005,405958,341599,4161
1705465920021,406004,341601,4223
1705465920037,406108,341589,4172
1705465920052,406098,341690,4150
1705465920065,406209,341725,4211
1705465920081,406184,341744,4242
1705465920096,406193,341738,4242
1705465920112,406252,341764,4218
1705465920128,406200,341769,4274
1705465920143,406065,341677,4214
1705465920155,406097,341582,4203
1705465920171,405966,341507,4237
1705465920186,405775,341443,4213
1705465920202,405787,341396,4210
1705465920218,405698,341281,4229
1705465920233,405646,341274,4211
1705465920260,405656,341143,4144
1705465920276,405636,341093,4211
1705465920291,405544,341087,4190
1705465920307,405533,341108,4136
1705465920323,405624,341048,4212
1705465920338,405651,341133,4293
1705465920348,405626,341151,4253
1705465920364,405626,341089,4214
1705465920379,405611,341113,4241
1705465920395,405558,341128,4214
1705465920411,405594,341081,4242
1705465920426,405569,341175,4235
1705465920439,405598,341178,4213
1705465920455,405645,341189,4210
1705465920470,405632,341189,4213
1705465920486,405705,341213,4194
1705465920502,405745,341188,4132
1705465920517,405740,341163,4171
1705465920529,405737,341273,4221
1705465920545,405896,341225,4213
1705465920560,405784,341233,4214
1705465920576,405838,341295,4298
1705465920592,405928,341248,4216
1705465920607,405925,341357,4256
1705465920633,405937,341377,4234
1705465920649,405961,341385,4236
1705465920664,405960,341404,4276
1705465920680,405925,341446,4215
1705465920696,405981,341464,4208
1705465920711,406041,341423,4160
1705465920723,406031,341530,4248
1705465920739,406060,341533,4152
1705465920754,406105,341534,4213
1705465920770,406064,341494,4212
1705465920786,406081,341556,4147
1705465920801,406059,341452,4216
1705465920814,405994,341465,4194
1705465920830,405941,341407,4248
1705465920845,405793,341277,4233
1705465920861,405694,341166,4274
1705465920877,405594,341104,4209
1705465920892,405528,340987,4231
1705465920904,405472,341008,4203
1705465920920,405366,340975,4210
1705465920935,405443,340878,4154
1705465920951,405414,340880,4212
1705465920967,405384,340926,4164
1705465920982,405442,340835,4139
1705465920996,405496,340908,4208
1705465921012,405485,340893,4185
1705465921027,405519,340913,4209
1705465921043,405435,340786,4231
1705465921059,405479,340819,4294
1705465921074,405540,340869,4209
1705465921099,405465,340885,4210
1705465921115,405468,340878,4249
1705465921130,405435,340926,4211
1705465921146,405444,340886,4173
1705465921162,405323,340918,4209
1705465921177,405404,340958,4232
1705465921189,405457,340939,4174
1705465921205,405446,341014,4209
1705465921220,405521,341044,4194
1705465921236,405495,341017,4204
1705465921252,405547,341037,4209
1705465921267,405519,341035,4142
1705465921281,405573,341037,4211
1705465921297,405521,341088,4212
1705465921312,405573,341140,4283
1705465921328,405599,341170,4207
1705465921344,405568,341176,4290
1705465921359,405534,341152,4208
1705465921383,405562,341218,4214
1705465921399,405548,341208,4284
1705465921414,405442,341288,4208
1705465921430,405538,341267,4191
1705465921446,405562,341288,4205
1705465921461,405551,341347,4208
1705465921473,405589,341311,4239
1705465921489,405587,341323,4216
1705465921504,405459,341221,4167
1705465921520,405346,341143,4139
1705465921536,405327,341016,4203
1705465921551,405195,341028,4277
1705465921565,405154,340932,4202
1705465921581,405112,340817,4213
1705465921596,405098,340818,4247
1705465921612,405023,340824,4203
1705465921628,405040,340811,4256
1705465921643,405037,340822,4214
1705465921655,405076,340862,4201
1705465921671,405135,340816,4151
1705465921686,405072,340834,4205
1705465921702,405125,340891,4223
1705465921718,405148,340843,4113
1705465921733,405234,340887,4204
1705465921744,405110,340868,4202
1705465921760,405294,340898,4205
1705465921775,405244,340886,4209
1705465921791,405284,340910,4242
1705465921807,405305,340926,4206
1705465921822,405252,340920,4229
1705465921848,405282,340939,4220
1705465921864,405325,341021,4205
1705465921879,405350,341006,4278
1705465921895,405397,341066,4208
1705465921911,405398,341108,4220
1705465921926,405426,341095,4152
1705465921939,405449,341145,4206
1705465921955,405437,341134,4147
1705465921970,405531,341190,4214
1705465921986,405476,341198,4188
1705465922002,405523,341200,4142
1705465922017,405613,341237,4207
1705465922029,405585,341268,4206
1705465922045,405658,341263,4208
1705465922060,405626,341242,4219
1705465922076,405637,341387,4233
1705465922092,405621,341373,4208
1705465922107,405704,341420,4227
1705465922134,405745,341421,4230
1705465922150,405628,341486,4205
1705465922165,405764,341466,4138
1705465922181,405768,341418,4252
1705465922197,405673,341391,4205
1705465922212,405592,341189,4122
1705465922224,405599,341133,4205
1705465922240,405498,341071,4194
1705465922255,405505,341069,4135
1705465922271,405471,340999,4205
1705465922287,405362,340976,4267
1705465922302,405441,340895,4202
1705465922314,405333,340917,4204
1705465922330,405302,340900,4249
1705465922345,405275,340940,4203
1705465922361,405336,340980,4208
1705465922377,405333,340952,4223
1705465922392,405402,341001,4189
1705465922403,405412,340889,4174
1705465922419,405326,340933,4204
1705465922434,405363,340926,4183
1705465922450,405375,340973,4119
1705465922466,405427,340896,4162
1705465922481,405414,340957,4139
1705465922509,405425,340941,4216
1705465922525,405481,340883,4203
1705465922540,405504,341012,4287
1705465922556,405594,341009,4207
1705465922572,405513,341029,4250
1705465922587,405454,341063,4236
1705465922599,405565,341062,4204
1705465922615,405559,341069,4238
1705465922630,405531,341075,4205
1705465922646,405650,341210,4231
1705465922662,405678,341177,4150
1705465922677,405719,341272,4205
1705465922688,405742,341174,4189
1705465922704,405909,341259,4205
1705465922719,405848,341280,4193
1705465922735,405864,341356,4120
1705465922751,405975,341325,4208
1705465922766,405976,341393,4248
1705465922778,405978,341449,4164
1705465922794,406046,341357,4209
1705465922809,406050,341483,4280
1705465922825,405968,341458,4206
1705465922841,406033,341436,4193
1705465922856,405956,341349,4228
1705465922869,405850,341278,4207
1705465922885,405735,341120,4215
1705465922900,405575,341102,4204
1705465922916,405591,341060,4205
1705465922932,405572,340963,4123
1705465922947,405571,340829,4203
1705465922973,405476,340833,4242
1705465922989,405568,340864,4199
1705465923004,405510,340802,4203
1705465923020,405493,340797,4252
1705465923036,405549,340794,4205
1705465923051,405503,340779,4204
1705465923064,405463,340806,4220
1705465923080,405494,340823,4224
1705465923095,405497,340808,4262
1705465923111,405483,340828,4202
1705465923127,405497,340896,4203
1705465923142,405474,340845,4180
1705465923155,405435,340864,4217
1705465923171,405564,340861,4205
1705465923186,405613,340844,4190
1705465923202,405537,340866,4204
1705465923218,405588,340879,4136
1705465923233,405650,340919,4203
1705465923244,405683,340936,4207
1705465923260,405713,340978,4263
1705465923275,405744,340928,4204
1705465923291,405739,341022,4204
1705465923307,405719,341034,4202
1705465923322,405820,341151,4204
1705465923349,405806,341101,4224
1705465923365,405751,341171,4202
1705465923380,405810,341171,4139
1705465923396,405804,341187,4212
1705465923412,405877,341243,4203
1705465923427,405905,341208,4123
1705465923439,405951,341257,4184
1705465923455,405981,341261,4161
1705465923470,406028,341348,4150
1705465923486,406090,341330,4204
1705465923502,406068,341333,4302
1705465923517,406019,341329,4205
1705465923530,405973,341216,4250
1705465923546,405863,341214,4278
1705465923561,405726,341009,4205
1705465923577,405714,340973,4204
1705465923593,405556,340879,4226
1705465923608,405506,340890,4227
1705465923620,405541,340782,4182
1705465923636,405411,340720,4200
1705465923651,405429,340763,4200
1705465923667,405466,340696,4116
1705465923683,405447,340608,4201
1705465923698,405460,340664,4157
1705465923724,405511,340670,4177
1705465923740,405439,340580,4207
1705465923755,405427,340680,4258
1705465923771,405474,340665,4199
1705465923787,405477,340662,4223
1705465923802,405440,340723,4226
1705465923814,405480,340681,4201
1705465923830,405499,340711,4275
1705465923845,405362,340717,4202
1705465923861,405499,340756,4202
1705465923877,405581,340775,4130
1705465923892,405540,340822,4181
1705465923904,405543,340797,4279
1705465923920,405674,340821,4199
1705465923935,405606,340881,4160
1705465923951,405663,340874,4203
1705465923967,405743,340902,4201
1705465923982,405673,340915,4224
1705465924008,405699,340924,4201
1705465924024,405757,340946,4211
1705465924039,405753,341050,4246
1705465924055,405780,341085,4202
1705465924071,405883,341117,4225
1705465924086,405885,341066,4276
1705465924098,405955,341097,4204
1705465924114,405976,341207,4136
1705465924129,405981,341186,4214
1705465924145,406010,341253,4172
1705465924161,405924,341255,4118
1705465924176,406052,341272,4201
1705465924189,406011,341189,4215
1705465924205,406011,341249,4155
1705465924220,405953,341127,4196
1705465924236,405827,341055,4222
1705465924252,405842,340990,4200
1705465924267,405697,340826,4203
1705465924279,405591,340784,4216
1705465924295,405518,340770,4200
1705465924310,405518,340759,4246
1705465924326,405484,340732,4192
1705465924342,405573,340814,4201
1705465924357,405540,340695,4143
1705465924369,405551,340747,4211
1705465924385,405548,340760,4178
1705465924400,405598,340734,4116
1705465924416,405587,340724,4201
1705465924432,405623,340725,4119
1705465924447,405651,340736,4201
1705465924473,405558,340751,4200
1705465924489,405620,340719,4263
1705465924504,405601,340660,4200
1705465924520,405554,340685,4183
1705465924536,405490,340727,4229
1705465924551,405583,340796,4223
1705465924564,405614,340773,4251
1705465924580,405539,340852,4201
1705465924595,405649,340831,4213
1705465924611,405679,340883,4127
1705465924627,405529,340943,4197
1705465924642,405694,340897,4134
1705465924655,405716,340885,4221
1705465924671,405727,340883,4199
1705465924686,405744,340942,4134
1705465924702,405880,340958,4201
1705465924718,405850,341037,4217
1705465924733,405854,341044,4238
1705465924745,405823,340958,4183
1705465924761,405911,341090,4246
1705465924776,405793,341110,4201
1705465924792,405942,341133,4211
1705465924808,405977,341145,4225
1705465924823,405971,341272,4203
1705465924850,406108,341273,4197
1705465924866,406017,341284,4203
1705465924881,406125,341347,4201
1705465924897,406066,341206,4092
1705465924913,406036,341210,4203
1705465924928,405870,341141,4174
1705465924938,405783,341037,4183
1705465924954,405808,340908,4196
1705465924969,405638,340826,4280
1705465924985,405611,340823,4197
1705465925001,405554,340770,4198
1705465925016,405538,340762,4208
1705465925029,405519,340749,4193
1705465925045,405452,340745,4248
1705465925060,405413,340746,4196
1705465925076,405448,340751,4195
1705465925092,405438,340747,4160
1705465925107,405434,340756,4195
1705465925120,405418,340771,4194
1705465925136,405445,340701,4149
1705465925151,405495,340642,4196
1705465925167,405470,340746,4194
1705465925183,405547,340775,4195
1705465925198,405414,340702,4221
1705465925225,405471,340776,4235
1705465925241,405493,340760,4194
1705465925256,405520,340795,4278
1705465925272,405594,340865,4196
1705465925288,405534,340841,4207
1705465925303,405589,340878,4266
1705465925314,405478,340910,4194
1705465925330,405616,340960,4174
1705465925345,405612,340923,4196
1705465925361,405578,341012,4196
1705465925377,405655,341011,4110
1705465925392,405751,341047,4195
1705465925403,405660,341066,4181
1705465925419,405775,341082,4127
1705465925434,405813,341062,4195
1705465925450,405799,341142,4205
1705465925466,405952,341147,4195
1705465925481,405838,341099,4208
1705465925495,405833,341212,4225
1705465925511,405818,341217,4194
1705465925526,405924,341262,4240
1705465925542,405954,341268,4219
1705465925558,405905,341280,4194
1705465925573,405872,341221,4152
1705465925598,405851,341228,4182
1705465925614,405849,341200,4198
1705465925629,405758,341029,4178
1705465925645,405683,340957,4171
1705465925661,405551,340936,4145
1705465925676,405554,340818,4195
1705465925688,405476,340728,4209
1705465925704,405440,340750,4277
1705465925719,405542,340761,4194
1705465925735,405445,340722,4194
1705465925751,405436,340701,4237
1705465925766,405488,340779,4192
1705465925781,405503,340713,4158
1705465925797,405378,340763,4191
1705465925812,405492,340803,4194
1705465925828,405471,340746,4128
1705465925844,405415,340758,4193
1705465925859,405466,340734,4166
1705465925871,405471,340717,4192
1705465925887,405457,340698,4150
1705465925902,405487,340705,4126
1705465925918,405552,340768,4193
1705465925934,405508,340739,4211
1705465925949,405599,340809,4219
1705465925973,405619,340798,4195
1705465925989,405584,340817,4267
1705465926004,405570,340829,4194
1705465926020,405670,340878,4215
1705465926036,405666,340870,4247
1705465926051,405598,340965,4192
1705465926064,405745,340957,4206
1705465926080,405687,341009,4179
1705465926095,405734,341054,4190
1705465926111,405726,340984,4120
1705465926127,405864,340997,4188
1705465926142,405833,341029,4183
1705465926155,405788,341123,4200
1705465926171,405844,341062,4196
1705465926186,405907,341153,4223
1705465926202,405963,341185,4195
1705465926218,405941,341099,4194
1705465926233,405965,341146,4265
1705465926244,405940,341203,4193
1705465926260,405916,341211,4240
1705465926275,405743,341083,4192
1705465926291,405717,341102,4191
1705465926307,405707,340916,4141
1705465926322,405512,340834,4188
1705465926349,405465,340689,4186
1705465926365,405387,340615,4104
1705465926380,405383,340625,4153
1705465926396,405266,340540,4153
1705465926412,405363,340478,4186
1705465926427,405245,340477,4183
1705465926439,405235,340481,4220
1705465926455,405300,340455,4185
1705465926470,405229,340514,4186
1705465926486,405254,340496,4215
1705465926502,405259,340543,4209
1705465926517,405277,340559,4259
1705465926529,405281,340550,4157
1705465926545,405271,340572,4208
1705465926560,405335,340567,4134
1705465926576,405321,340557,4177
1705465926592,405336,340582,4104
1705465926607,405432,340580,4188
1705465926619,405408,340610,4149
1705465926635,405391,340619,4100
1705465926650,405458,340555,4187
1705465926666,405383,340641,4188
1705465926682,405469,340697,4206
1705465926697,405462,340646,4226
1705465926723,405453,340765,4250
1705465926739,405465,340771,4186
1705465926754,405536,340821,4186
1705465926770,405532,340795,4215
1705465926786,405498,340911,4188
1705465926801,405615,340880,4136
1705465926814,405637,340927,4203
1705465926830,405636,341002,4184
1705465926845,405726,340966,4104
1705465926861,405823,340991,4190
1705465926877,405755,341056,4096
1705465926892,405902,341081,4188
1705465926905,405907,341090,4171
1705465926921,405961,341145,4251
1705465926936,405994,341144,4189
1705465926952,405896,341070,4201
1705465926968,405839,341065,4229
1705465926983,405738,341002,4195
1705465926994,405675,340944,4191
1705465927010,405521,340854,4191
1705465927025,405562,340857,4187
1705465927041,405513,340725,4145
1705465927057,405483,340682,4188
1705465927072,405458,340649,4145
1705465927098,405432,340652,4152
1705465927114,405471,340600,4169
1705465927129,405425,340654,4125
1705465927145,405451,340612,4189
1705465927161,405370,340633,4200
1705465927176,405390,340610,4245
1705465927189,405359,340636,4188
1705465927205,405363,340606,4244
1705465927220,405328,340612,4188
1705465927236,405352,340573,4196
1705465927252,405310,340583,4240
1705465927267,405210,340647,4187
1705465927278,405391,340600,4189
1705465927294,405382,340601,4189
1705465927309,405363,340711,4188
1705465927325,405418,340648,4183
1705465927341,405472,340705,4186
1705465927356,405428,340683,4149
1705465927370,405498,340768,4167
1705465927386,405522,340716,4187
1705465927401,405512,340771,4287
1705465927417,405570,340836,4181
1705465927433,405618,340876,4196
1705465927448,405602,340915,4262
1705465927474,405572,340859,4188
1705465927490,405648,340990,4239
1705465927505,405617,340993,4188
1705465927521,405667,341128,4190
1705465927537,405738,340985,4134
1705465927552,405771,341059,4191
1705465927564,405738,341093,4198
1705465927580,405838,341074,4107
1705465927595,405870,341097,4189
1705465927611,405847,341116,4203
1705465927627,405911,341133,4190
1705465927642,405778,341084,4193
1705465927655,405700,341043,4238
1705465927671,405704,340949,4204
1705465927686,405574,340829,4209
1705465927702,405454,340807,4213
1705465927718,405351,340743,4186
1705465927733,405378,340665,4250
1705465927746,405268,340608,4181
1705465927762,405339,340625,4208
1705465927777,405277,340588,4142
1705465927793,405224,340541,4186
1705465927809,405307,340579,4137
1705465927824,405294,340571,4192
1705465927849,405217,340577,4145
1705465927865,405272,340545,4121
1705465927880,405301,340581,4182
1705465927896,405244,340561,4185
1705465927912,405236,340549,4224
1705465927927,405255,340513,4234
1705465927940,405264,340555,4214
1705465927956,405202,340579,4219
1705465927971,405267,340654,4187
1705465927987,405311,340596,4256
1705465928003,405174,340693,4187
1705465928018,405316,340692,4118
1705465928030,405302,340692,4209
1705465928046,405421,340775,4183
1705465928061,405412,340759,4177
1705465928077,405431,340737,4186
1705465928093,405425,340751,4188
1705465928108,405437,340784,4111
1705465928120,405501,340836,4187
1705465928136,405445,340817,4269
1705465928151,405555,340838,4185
1705465928167,405580,340821,4174
1705465928183,405537,340912,4218
1705465928198,405547,340973,4185
1705465928224,405632,340996,4188
1705465928240,405538,340978,4240
1705465928255,405710,341076,4184
1705465928271,405717,341052,4134
1705465928287,405685,341125,4187
1705465928302,405775,341125,4187
1705465928313,405790,341145,4219
1705465928329,405834,341120,4145
1705465928344,405725,341091,4179
1705465928360,405703,341042,4187
1705465928376,405554,340907,4187
1705465928391,405489,340861,4242
1705465928403,405428,340758,4168
1705465928419,405349,340688,4230
1705465928434,405238,340690,4214
1705465928450,405331,340676,4204
1705465928466,405317,340648,4260
1705465928481,405216,340719,4184
1705465928494,405350,340680,4182
1705465928510,405301,340675,4129
1705465928525,405278,340758,4183
1705465928541,405285,340685,4187
1705465928557,405379,340699,4183
1705465928572,405285,340680,4184
1705465928599,405345,340626,4117
1705465928615,405393,340624,4187
1705465928630,405364,340627,4210
1705465928646,405292,340661,4227
1705465928662,405369,340651,4185
1705465928677,405346,340702,4258
1705465928689,405288,340743,4185
1705465928705,405350,340734,4206
1705465928720,405418,340780,4216
1705465928736,405318,340832,4187
1705465928752,405439,340805,4153
1705465928767,405435,340860,4183
1705465928778,405549,340886,4184
1705465928794,405521,340893,4098
1705465928809,405634,340885,4181
1705465928825,405609,341007,4161
1705465928841,405654,340982,4185
1705465928856,405648,340972,4183
1705465928869,405725,341020,4237
1705465928885,405805,341021,4186
1705465928900,405756,341014,4196
1705465928916,405754,341106,4213
1705465928932,405803,341181,4202
1705465928947,405850,341176,4260
1705465928974,405825,341171,4190
1705465928990,405870,341199,4188
1705465929005,405898,341238,4131
1705465929021,405794,341250,4210
1705465929037,405836,341206,4143
1705465929052,405815,341127,4171
1705465929063,405638,341015,4184
1705465929079,405588,340958,4117
1705465929094,405621,340883,4194
1705465929110,405519,340857,4214
1705465929126,405476,340838,4239
1705465929141,405468,340786,4182
1705465929154,405382,340816,4182
1705465929170,405384,340756,4184
1705465929185,405463,340834,4198
1705465929201,405467,340795,4195
1705465929217,405443,340864,4181
1705465929232,405484,340849,4116
1705465929244,405404,340809,4183
1705465929260,405428,340876,4183
1705465929275,405456,340819,4096
1705465929291,405513,340829,4184
1705465929307,405474,340804,4149
1705465929322,405474,340835,4114
1705465929348,405464,340847,4185
1705465929364,405443,340830,4281
1705465929379,405560,340896,4182
1705465929395,405524,340865,4195
1705465929411,405543,340918,4246
1705465929426,405531,340934,4183
1705465929438,405613,340981,4212
1705465929454,405644,340991,4217
1705465929469,405638,341086,4184
1705465929485,405729,341076,4149
1705465929501,405610,341051,4184
1705465929516,405771,341191,4184
1705465929529,405708,341101,4162
1705465929545,405815,341125,4184
1705465929560,405825,341209,4138
1705465929576,405878,341202,4188
1705465929592,405951,341208,4182
1705465929607,405907,341265,4269
1705465929633,405907,341303,4183
1705465929649,405951,341325,4245
1705465929664,405937,341336,4184
1705465929680,406025,341352,4208
1705465929696,406005,341398,4256
1705465929711,405930,341386,4188
1705465929724,405970,341381,4193
1705465929740,405895,341319,4150
1705465929755,405838,341293,4183
1705465929771,405815,341180,4195
1705465929787,405789,341102,4186
1705465929802,405709,341029,4139
1705465929814,405641,340991,4135
1705465929830,405678,341008,4182
1705465929845,405599,340984,4207
1705465929861,405598,340951,4209
1705465929877,405617,340931,4181
1705465929892,405635,341039,4254
1705465929906,405638,341024,4180
1705465929922,405605,341009,4231
1705465929937,405638,341012,4240
1705465929953,405542,340979,4173
1705465929969,405623,341031,4145
1705465929984,405584,341001,4193
1705465929994,405649,341032,4165
1705465930010,405662,341010,4096
1705465930025,405739,341008,4187
1705465930041,405673,341034,4153
1705465930057,405725,341077,4157
1705465930072,405709,341054,4186
1705465930100,405747,341137,4205
1705465930116,405780,341072,4181
1705465930131,405740,341117,4184
1705465930147,405755,341185,4253
1705465930163,405722,341208,4183
1705465930178,405796,341228,4228
1705465930189,405857,341272,4185
1705465930205,405850,341348,4182
1705465930220,405852,341283,4128
1705465930236,405900,341287,4208
1705465930252,405913,341285,4158
1705465930267,405959,341358,4101
1705465930279,405955,341390,4202
1705465930295,405986,341405,4118
1705465930310,406092,341417,4184
1705465930326,405978,341423,4178
1705465930342,406058,341488,4218
1705465930357,406104,341419,4182
1705465930370,406052,341484,4171
1705465930386,405947,341481,4211
1705465930401,405960,341425,4181
1705465930417,405810,341345,4228
1705465930433,405610,341303,4181
1705465930448,405727,341154,4199
1705465930475,405561,341052,4197
1705465930491,405477,341090,4220
1705465930506,405539,340990,4109
1705465930522,405548,340940,4176
1705465930538,405512,340977,4179
1705465930553,405508,340926,4119
1705465930565,405488,340986,4179
1705465930581,405492,340874,4220
1705465930596,405478,340902,4219
1705465930612,405451,340859,4180
1705465930628,405503,340914,4251
1705465930643,405431,340892,4180
1705465930653,405498,340918,4179
1705465930669,405382,340913,4238
1705465930684,405434,340988,4175
1705465930700,405444,340943,4177
1705465930716,405475,340927,4179
1705465930731,405470,341023,4182
1705465930745,405571,341007,4090
1705465930761,405553,340918,4180
1705465930776,405538,341020,4179
1705465930792,405629,341031,4183
1705465930808,405615,340951,4180
1705465930823,405622,341105,4264
1705465930848,405722,341056,4148
1705465930864,405695,341163,4195
1705465930879,405713,341169,4219
1705465930895,405710,341197,4180
1705465930911,405756,341209,4258
1705465930926,405731,341240,4179
1705465930940,405839,341272,4170
1705465930956,405864,341288,4128
1705465930971,405762,341340,4181
1705465930987,405933,341346,4107
1705465931003,405979,341367,4165
1705465931018,405997,341429,4181
1705465931028,405972,341365,4179
1705465931044,406039,341389,4181
1705465931059,405955,341326,4196
1705465931075,405885,341328,4207
1705465931091,405846,341161,4182
1705465931106,405648,341116,4261
1705465931120,405569,341026,4175
1705465931136,405465,340929,4192
1705465931151,405454,340853,4246
1705465931167,405223,340800,4178
1705465931183,405319,340747,4100
1705465931198,405323,340743,4173
1705465931224,405316,340738,4181
1705465931240,405288,340718,4095
1705465931255,405342,340689,4179
1705465931271,405295,340711,4177
1705465931287,405326,340694,4108
1705465931302,405337,340665,4179
1705465931314,405234,340705,4178
1705465931330,405324,340691,4178
1705465931345,405212,340607,4188
1705465931361,405273,340675,4200
1705465931377,405216,340683,4183
1705465931392,405270,340681,4226
1705465931404,405257,340729,4168
1705465931420,405307,340832,4159
1705465931435,405318,340728,4122
1705465931451,405265,340780,4179
1705465931467,405353,340840,4188
1705465931482,405403,340810,4095
1705465931496,405438,340806,4179
1705465931512,405395,340856,4132
1705465931527,405496,340870,4182
1705465931543,405480,340862,4192
1705465931559,405464,340923,4262
1705465931574,405567,340859,4182
1705465931598,405528,340996,4179
1705465931614,405526,340983,4205
1705465931629,405561,341056,4192
1705465931645,405567,341059,4211
1705465931661,405525,341070,4182
1705465931676,405684,341186,4181
1705465931688,405692,341120,4164
1705465931704,405719,341217,4148
1705465931719,405739,341183,4116
1705465931735,405712,341144,4187
1705465931751,405681,341038,4138
1705465931766,405538,341002,4117
1705465931793,405490,340882,4211
1705465931809,405358,340788,4199
1705465931824,405200,340675,4204
1705465931840,405098,340582,4188
1705465931856,405074,340572,4252
1705465931871,404978,340468,4178
1705465931869,405005,340406,4194
1705465931885,404946,340432,4224
1705465931900,404847,340436,4175
1705465931916,405004,340383,4161
1705465931932,404921,340363,4174
1705465931947,404977,340450,4175
1705465931974,404947,340427,4124
1705465931990,404974,340378,4178
1705465932005,404950,340368,4166
1705465932021,404914,340366,4103
1705465932037,404970,340301,4173
1705465932052,404935,340390,4260
1705465932064,405008,340385,4162
1705465932080,404963,340321,4179
1705465932095,404933,340399,4249
1705465932111,404958,340468,4147
1705465932127,405028,340483,4225
1705465932142,404959,340510,4200
1705465932154,405043,340507,4180
1705465932170,405086,340566,4123
1705465932185,405110,340565,4181
1705465932201,405163,340597,4159
1705465932217,405184,340596,4163
1705465932232,405220,340625,4137
1705465932244,405279,340720,4184
1705465932260,405279,340688,4178
1705465932275,405214,340666,4178
1705465932291,405292,340774,4264
1705465932307,405418,340644,4180
1705465932322,405384,340805,4224
1705465932349,405410,340868,4195
1705465932365,405466,340864,4204
1705465932380,405441,340863,4241
1705465932396,405379,340884,4179
1705465932412,405496,340912,4173
1705465932427,405449,340852,4125
1705465932439,405366,340788,4177
1705465932455,405224,340708,4113
1705465932470,405154,340539,4181
1705465932486,404987,340406,4178
1705465932502,404903,340273,4114
1705465932517,404874,340238,4173
1705465932529,404748,340165,4206
1705465932545,404687,340198,4218
1705465932560,404717,340069,4178
1705465932576,404693,340108,4219
1705465932592,404633,340113,4180
1705465932607,404703,340095,4200
1705465932620,404739,340053,4189
1705465932636,404543,340203,4201
1705465932651,404662,340096,4113
1705465932667,404594,340125,4176
1705465932683,404645,340180,4174
1705465932698,404684,340111,4144
1705465932723,404674,340117,4178
1705465932739,404712,340165,4149
1705465932754,404691,340127,4175
1705465932770,404777,340135,4174
1705465932786,404724,340167,4235
1705465932801,404803,340205,4176
1705465932813,404782,340259,4187
1705465932829,404817,340239,4239
1705465932844,404755,340320,4196
1705465932860,404789,340341,4214
1705465932876,404746,340316,4178
1705465932891,404893,340441,4186
1705465932903,404939,340344,4136
1705465932919,404918,340388,4175
1705465932934,404964,340445,4133
1705465932950,404973,340436,4181
1705465932966,405051,340455,4178
1705465932981,405058,340516,4114
1705465932995,405155,340548,4178
1705465933011,405129,340616,4179
1705465933026,405194,340643,4211
1705465933042,405263,340663,4180
1705465933058,405170,340642,4258
1705465933073,405147,340619,4180
1705465933098,405150,340625,4185
1705465933114,405076,340544,4256
1705465933129,404830,340475,4181
1705465933145,404848,340343,4165
1705465933161,404750,340222,4176
1705465933176,404697,340205,4178
1705465933189,404664,340059,4158
1705465933205,404740,340048,4176
1705465933220,404639,340063,4138
1705465933236,404583,340005,4132
1705465933252,404693,340007,4179
1705465933267,404689,340102,4249
1705465933278,404641,340083,4153
1705465933294,404620,340008,4188
1705465933309,404635,340141,4251
1705465933325,404572,340072,4197
1705465933341,404644,340082,4259
1705465933356,404589,340085,4201
1705465933371,404658,340141,4161
1705465933387,404638,340065,4124
1705465933402,404631,340108,4176
1705465933418,404652,340110,4194
1705465933434,404733,340139,4092
1705465933449,404740,340094,4160
1705465933474,404697,340185,4177
1705465933490,404857,340218,4182
1705465933505,404770,340201,4168
1705465933521,404819,340238,4230
1705465933537,404893,340272,4178
1705465933552,404840,340261,4199
1705465933565,404845,340371,4183
1705465933581,404903,340374,4189
1705465933596,405009,340383,4251
1705465933612,404987,340436,4170
1705465933628,405028,340553,4175
1705465933643,405058,340495,4126
1705465933656,405043,340549,4180
1705465933672,405114,340582,4119
1705465933687,405150,340575,4187
1705465933703,405171,340547,4179
1705465933719,405186,340677,4115
1705465933734,405301,340635,4182
1705465933745,405157,340657,4178
1705465933761,405317,340733,4187
1705465933776,405228,340631,4191
1705465933792,405090,340594,4223
1705465933808,404979,340529,4137
1705465933823,404939,340444,4201
1705465933849,404878,340337,4203
1705465933865,404788,340290,4203
1705465933880,404756,340244,4112
1705465933896,404751,340232,4189
1705465933912,404705,340248,4177
1705465933927,404763,340206,4094
1705465933939,404748,340215,4177
1705465933955,404770,340255,4141
1705465933970,404812,340188,4102
1705465933986,404798,340244,4184
1705465934002,404839,340239,4261
1705465934017,404847,340248,4178
1705465934030,404789,340268,4191
1705465934046,404771,340249,4249
1705465934061,404742,340266,4179
1705465934077,404847,340365,4210
1705465934093,404834,340283,4179
1705465934108,404851,340410,4178
1705465934119,404926,340329,4146
1705465934135,404860,340420,4173
1705465934150,404911,340420,4158
1705465934166,404920,340424,4094
1705465934182,405012,340392,4141
1705465934197,404981,340434,4123
1705465934224,405035,340519,4157
1705465934240,405049,340473,4180
1705465934255,405060,340568,4273
1705465934271,405151,340567,4163
1705465934287,405083,340580,4224
1705465934302,405058,340639,4178
1705465934313,405165,340660,4157
1705465934329,405211,340673,4252
1705465934344,405142,340736,4180
1705465934360,405255,340813,4182
1705465934376,405294,340774,4177
1705465934391,405307,340899,4181
1705465934419,405349,340856,4181
1705465934435,405432,340867,4179
1705465934450,405418,340875,4178
1705465934466,405415,340837,4094
1705465934482,405485,340770,4180
1705465934497,405354,340780,4226
1705465934494,405250,340673,4180
1705465934510,405165,340548,4182
1705465934525,405155,340579,4253
1705465934541,405034,340495,4181
1705465934557,405010,340549,4199
1705465934572,405006,340489,4212
1705465934598,405006,340482,4179
1705465934614,405005,340459,4161
1705465934629,405006,340507,4179
1705465934645,405062,340602,4179
1705465934661,405131,340537,4165
1705465934676,405164,340484,4179
1705465934690,405112,340554,4173
1705465934706,405097,340516,4179
1705465934721,405131,340490,4176
1705465934737,405090,340536,4253
1705465934753,405174,340571,4178
