timestamp,ambient,infrared,red
1705466388437,173097,172985,4590
1705466388448,472618,376414,4642
1705466388453,472664,376506,4628
1705466388454,472761,376475,4665
1705466388453,472774,376500,4618
1705466388464,472774,376500,4618
1705466388469,472774,376500,4618
1705466388470,472774,376500,4618
1705466388468,472789,376492,4617
1705466388479,472789,376492,4617
1705466388484,472789,376492,4617
1705466388485,472789,376492,4617
1705466388484,472768,376571,4645
1705466388495,472768,376571,4645
1705466388500,472768,376571,4645
1705466388501,472768,376571,4645
1705466388500,472726,376597,4618
1705466388511,472726,376597,4618
1705466388516,472726,376597,4618
1705466388517,472726,376597,4618
1705466388515,472734,376601,4650
1705466388526,472734,376601,4650
1705466388531,472734,376601,4650
1705466388532,472734,376601,4650
1705466388517,472786,376623,4617
1705466388533,472752,376684,4618
1705466388548,472834,376672,4537
1705466388564,472783,376683,4617
1705466388580,472870,376791,4577
1705466388595,472882,376796,4602
1705466388604,472924,376775,4617
1705466388620,472907,376845,4611
1705466388635,472968,376872,4621
1705466388651,472920,376853,4597
1705466388667,472923,376901,4670
1705466388682,473062,376937,4617
1705466388711,473012,376964,4622
1705466388727,472976,376988,4645
1705466388742,473082,377041,4622
1705466388758,473078,377011,4596
1705466388774,472990,377069,4618
1705466388789,473156,377175,4627
1705466388802,473250,377161,4592
1705466388818,473163,377193,4607
1705466388833,473222,377132,4566
1705466388849,473257,377130,4618
1705466388865,473089,377014,4620
1705466388880,472927,376940,4601
1705466388904,472816,376857,4613
1705466388920,472774,376743,4660
1705466388935,472723,376819,4645
1705466388951,472720,376651,4620
1705466388967,472759,376723,4713
1705466388982,472679,376732,4616
1705466388993,472796,376741,4633
1705466389009,472741,376774,4670
1705466389024,472707,376830,4615
1705466389040,472843,376741,4539
1705466389056,472846,376838,4630
1705466389071,472872,376883,4622
1705466389086,472833,376821,4625
1705466389102,472987,376803,4613
1705466389117,472885,376810,4615
1705466389133,472934,376843,4615
1705466389149,472899,376674,4611
1705466389164,472922,376876,4648
1705466389176,472957,376906,4616
1705466389192,472925,376787,4635
1705466389207,472974,376919,4706
1705466389223,473034,376951,4620
1705466389239,472951,376946,4657
1705466389254,472935,376991,4637
1705466389264,473008,377035,4638
1705466389280,473055,377082,4528
1705466389295,472941,377077,4615
1705466389311,473082,377149,4610
1705466389327,473092,377103,4526
1705466389342,473095,377131,4614
1705466389359,473086,377153,4563
1705466389375,473215,377173,4616
1705466389390,473157,377115,4639
1705466389406,473255,377273,4630
1705466389422,473269,377250,4614
1705466389437,473249,377329,4642
1705466389462,473232,377316,4607
1705466389478,473327,377433,4630
1705466389493,473340,377480,4670
1705466389509,473407,377464,4594
1705466389525,473428,377500,4609
1705466389540,473477,377449,4527
1705466389548,473483,377517,4614
1705466389564,473501,377498,4529
1705466389579,473501,377468,4617
1705466389595,473303,377369,4632
1705466389611,473193,377261,4608
1705466389626,473156,377127,4615
1705466389644,473073,377119,4598
1705466389660,473008,377129,4653
1705466389675,473035,377090,4629
1705466389691,472947,377114,4659
1705466389707,472992,377136,4613
1705466389722,473077,377113,4610
1705466389743,473157,377148,4606
1705466389759,473046,377328,4614
1705466389774,473143,377167,4525
1705466389790,473125,377145,4613
1705466389806,473211,377209,4612
1705466389821,473230,377152,4523
1705466389833,473260,377210,4623
1705466389849,473224,377151,4592
1705466389864,473271,377182,4607
1705466389880,473201,377117,4627
1705466389896,473225,377237,4645
1705466389911,473333,377220,4615
1705466389928,473322,377235,4613
1705466389944,473363,377269,4642
1705466389959,473289,377287,4611
1705466389975,473235,377281,4672
1705466389991,473296,377307,4619
1705466390006,473335,377388,4646
1705466390014,473374,377384,4613
1705466390030,473322,377433,4613
1705466390045,473387,377452,4563
1705466390061,473406,377455,4613
1705466390077,473533,377427,4612
1705466390092,473427,377487,4585
1705466390104,473457,377524,4599
1705466390120,473524,377495,4610
1705466390135,473559,377543,4659
1705466390151,473623,377524,4613
1705466390167,473583,377580,4678
1705466390182,473616,377591,4614
1705466390211,473726,377657,4623
1705466390227,473718,377632,4668
1705466390242,473596,377729,4613
1705466390258,473743,377688,4531
1705466390274,473756,377688,4600
1705466390289,473698,377789,4607
1705466390302,473667,377643,4618
1705466390318,473642,377586,4613
1705466390333,473489,377469,4611
1705466390349,473337,377453,4615
1705466390365,473472,377344,4589
1705466390380,473382,377317,4678
1705466390391,473434,377341,4614
1705466390407,473369,377381,4593
1705466390422,473379,377353,4687
1705466390438,473391,377371,4629
1705466390454,473344,377333,4643
1705466390469,473318,377369,4612
1705466390478,473386,377338,4615
1705466390494,473414,377313,4546
1705466390509,473344,377288,4614
1705466390525,473394,377317,4626
1705466390541,473385,377268,4525
1705466390556,473319,377296,4611
1705466390587,473334,377245,4608
1705466390603,473490,377297,4618
1705466390618,473348,377192,4614
1705466390634,473399,377283,4657
1705466390650,473508,377290,4612
1705466390665,473443,377287,4663
1705466390678,473462,377341,4642
1705466390694,473550,377453,4615
1705466390709,473633,377430,4668
1705466390725,473626,377489,4614
1705466390741,473744,377583,4625
1705466390756,473791,377498,4613
1705466390763,473795,377575,4613
1705466390779,473822,377616,4563
1705466390794,473983,377624,4624
1705466390810,473921,377655,4594
1705466390826,473978,377702,4589
1705466390841,474062,377669,4616
1705466390869,474033,377726,4643
1705466390885,474039,377742,4645
1705466390900,474096,377674,4615
1705466390916,473996,377807,4637
1705466390932,474023,377765,4614
1705466390947,474079,377835,4662
1705466390960,474043,377802,4643
1705466390976,473977,377863,4616
1705466390991,474102,377922,4568
1705466391007,474047,377890,4650
1705466391023,474095,377869,4621
1705466391038,473928,377687,4600
1705466391049,473706,377571,4615
1705466391065,473623,377489,4609
1705466391080,473606,377415,4587
1705466391096,473377,377353,4605
1705466391112,473423,377322,4662
1705466391127,473440,377189,4611
1705466391142,473384,377249,4610
1705466391158,473358,377215,4703
1705466391173,473314,377214,4610
1705466391189,473341,377213,4645
1705466391205,473294,377224,4633
1705466391220,473427,377271,4623
1705466391233,473430,377201,4614
1705466391249,473341,377284,4611
1705466391264,473435,377177,4627
1705466391280,473480,377191,4623
1705466391296,473503,377155,4612
1705466391311,473361,377150,4587
1705466391338,473445,377197,4612
1705466391354,473411,377111,4636
1705466391369,473371,377190,4663
1705466391385,473410,377167,4611
1705466391401,473459,377175,4672
1705466391416,473415,377208,4642
1705466391423,473531,377249,4621
1705466391439,473465,377216,4668
1705466391454,473449,377327,4612
1705466391470,473471,377281,4605
1705466391486,473530,377292,4527
1705466391501,473470,377386,4612
1705466391528,473557,377341,4596
1705466391544,473643,377368,4613
1705466391559,473568,377398,4608
1705466391575,473497,377381,4649
1705466391591,473715,377394,4613
1705466391606,473650,377445,4583
1705466391618,473653,377461,4617
1705466391634,473724,377414,4629
1705466391649,473759,377515,4708
1705466391665,473784,377572,4610
1705466391681,473771,377595,4610
1705466391696,473811,377527,4632
1705466391708,473691,377528,4604
1705466391724,473622,377354,4550
1705466391739,473342,377302,4613
1705466391755,473257,377175,4629
1705466391771,473190,377075,4522
1705466391786,473261,376991,4610
1705466391801,473172,377008,4572
1705466391817,473162,376967,4609
1705466391832,473146,376837,4633
1705466391848,473069,376893,4645
1705466391864,473168,376870,4613
1705466391879,473125,376787,4598
1705466391889,473129,376833,4616
1705466391905,473138,376893,4608
1705466391920,473125,376854,4672
1705466391936,473080,376868,4628
1705466391952,473120,376928,4639
1705466391967,473099,376803,4524
1705466391978,473156,376886,4611
1705466391994,473126,376845,4501
1705466392009,473208,376831,4590
1705466392025,473176,376860,4594
1705466392041,473239,376868,4584
1705466392056,473299,376890,4617
1705466392087,473207,376895,4589
1705466392103,473270,376930,4645
1705466392118,473312,376893,4613
1705466392134,473270,376970,4715
1705466392150,473318,376965,4613
1705466392165,473275,377090,4615
1705466392177,473326,377014,4633
1705466392193,473213,377101,4616
1705466392208,473355,377049,4556
1705466392224,473378,377038,4613
1705466392240,473337,377163,4614
1705466392255,473383,377124,4524
1705466392264,473374,377135,4614
1705466392280,473369,377147,4613
1705466392295,473438,377161,4584
1705466392311,473391,377127,4608
1705466392327,473436,377188,4647
1705466392342,473552,377246,4615
1705466392355,473527,377299,4596
1705466392371,473506,377311,4707
1705466392386,473475,377271,4613
1705466392402,473619,377305,4612
1705466392418,473524,377314,4629
1705466392433,473612,377457,4613
1705466392460,473584,377276,4631
1705466392476,473328,377199,4613
1705466392491,473164,377122,4620
1705466392507,473119,376957,4626
1705466392523,472961,376797,4609
1705466392538,472896,376775,4603
1705466392551,472880,376686,4591
1705466392567,472818,376666,4599
1705466392582,472749,376625,4663
1705466392598,472706,376545,4614
1705466392614,472678,376453,4665
1705466392629,472512,376550,4621
1705466392639,472649,376570,4594
1705466392655,472645,376517,4644
1705466392670,472610,376565,4610
1705466392686,472715,376563,4613
1705466392702,472707,376513,4532
1705466392717,472682,376574,4610
1705466392743,472676,376436,4615
1705466392759,472782,376477,4620
1705466392774,472679,376449,4614
1705466392790,472605,376491,4590
1705466392806,472720,376458,4613
1705466392821,472758,376529,4633
1705466392834,472841,376555,4645
1705466392850,472800,376523,4623
1705466392865,472845,376546,4707
1705466392881,472760,376618,4649
1705466392897,472842,376672,4630
1705466392912,472832,376677,4632
1705466392923,472911,376656,4614
1705466392939,472896,376762,4566
1705466392954,472868,376729,4627
1705466392970,472949,376776,4621
1705466392986,472927,376772,4548
1705466393001,473046,376801,4614
1705466393029,472915,376798,4611
1705466393045,473052,376825,4595
1705466393060,473051,376808,4609
1705466393076,473116,376921,4665
1705466393092,473163,376896,4602
1705466393107,473037,376841,4647
1705466393108,473142,377027,4616
1705466393124,473131,377077,4615
1705466393139,473242,377092,4652
1705466393155,473224,377077,4627
1705466393171,473293,377134,4627
1705466393186,473206,377099,4542
1705466393208,473108,377013,4624
1705466393224,472910,376881,4629
1705466393239,472822,376761,4528
1705466393255,472707,376674,4609
1705466393271,472717,376567,4587
1705466393286,472726,376543,4613
1705466393304,472521,376451,4620
1705466393320,472538,376474,4666
1705466393335,472556,376413,4615
1705466393351,472448,376430,4669
1705466393367,472407,376398,4641
1705466393382,472514,376452,4626
1705466393393,472601,376396,4612
1705466393409,472553,376414,4620
1705466393424,472610,376473,4638
1705466393440,472681,376452,4618
1705466393456,472558,376459,4615
1705466393471,472566,376451,4603
1705466393482,472623,376427,4635
1705466393498,472613,376429,4619
1705466393513,472633,376463,4587
1705466393529,472635,376397,4617
1705466393545,472667,376459,4605
1705466393560,472763,376465,4657
1705466393584,472728,376501,4650
1705466393600,472753,376591,4716
1705466393615,472653,376601,4616
1705466393631,472787,376567,4614
1705466393647,472800,376636,4640
1705466393662,472749,376719,4636
1705466393689,472770,376719,4578
1705466393705,472794,376721,4616
1705466393720,472877,376737,4633
1705466393736,472894,376784,4624
1705466393752,472973,376787,4618
1705466393767,472943,376807,4537
1705466393767,472890,376878,4618
1705466393783,472954,376804,4642
1705466393798,472971,376905,4674
1705466393814,473044,376981,4618
1705466393830,473027,376961,4607
1705466393845,473014,376965,4676
1705466393854,473049,377105,4620
1705466393870,473125,377086,4679
1705466393885,473010,377115,4620
1705466393901,473176,377173,4655
1705466393917,473140,377084,4535
1705466393932,472951,377097,4619
1705466393963,472858,377001,4570
1705466393979,472681,376838,4594
1705466393994,472650,376756,4618
1705466394010,472574,376696,4637
1705466394026,472628,376609,4617
1705466394041,472508,376507,4602
1705466394052,472502,376652,4614
1705466394068,472479,376518,4615
1705466394083,472422,376557,4722
1705466394099,472472,376500,4613
1705466394115,472436,376583,4614
1705466394130,472507,376543,4674
1705466394138,472548,376607,4618
1705466394154,472491,376625,4528
1705466394169,472519,376581,4604
1705466394185,472612,376602,4611
1705466394201,472530,376590,4529
1705466394216,472541,376582,4645
1705466394247,472544,376561,4617
1705466394263,472582,376594,4587
1705466394278,472697,376640,4620
1705466394294,472653,376702,4691
1705466394310,472765,376637,4619
1705466394325,472662,376617,4608
1705466394337,472616,376699,4619
1705466394353,472639,376765,4622
1705466394368,472705,376800,4651
1705466394384,472828,376817,4619
1705466394400,472707,376911,4622
1705466394415,472797,376835,4533
1705466394425,472854,376890,4623
1705466394441,472843,376985,4622
1705466394456,472869,376947,4534
1705466394472,472926,376971,4625
1705466394488,472921,377060,4614
1705466394503,473131,377038,4627
1705466394514,472980,377103,4621
1705466394530,473025,377059,4677
1705466394545,473156,377103,4622
1705466394561,473060,377056,4655
1705466394577,473033,377204,4649
1705466394592,473185,377255,4626
1705466394619,473242,377274,4648
1705466394635,473191,377260,4623
1705466394650,473281,377335,4635
1705466394666,473245,377265,4624
1705466394682,473170,377282,4623
1705466394697,473056,377142,4579
1705466394709,472931,376982,4622
1705466394725,472780,376920,4621
1705466394740,472745,376868,4589
1705466394756,472718,376767,4623
1705466394772,472653,376701,4665
1705466394787,472638,376705,4650
1705466394798,472645,376705,4619
1705466394814,472610,376721,4701
1705466394829,472538,376667,4622
1705466394845,472591,376712,4633
1705466394861,472625,376702,4676
1705466394876,472620,376808,4622
1705466394892,472722,376777,4638
1705466394908,472703,376758,4632
1705466394923,472779,376782,4631
1705466394939,472787,376808,4591
1705466394955,472759,376748,4638
1705466394970,472781,376803,4626
1705466394984,472847,376762,4623
1705466395000,472900,376693,4625
1705466395015,472882,376790,4677
1705466395031,472861,376859,4641
1705466395047,472819,376821,4643
1705466395062,472877,376848,4700
1705466395084,472832,376893,4622
1705466395100,472941,376933,4668
1705466395115,472895,376948,4646
1705466395131,473024,376950,4652
1705466395147,473018,376981,4560
1705466395162,472904,377033,4622
1705466395177,473043,376990,4635
1705466395193,473098,377051,4547
1705466395208,473119,377093,4626
1705466395224,473098,377138,4601
1705466395240,473166,377177,4626
1705466395255,473205,377178,4623
1705466395268,473189,377228,4625
1705466395284,473267,377194,4625
1705466395299,473266,377270,4690
1705466395315,473219,377258,4627
1705466395331,473274,377426,4666
1705466395346,473344,377399,4667
1705466395355,473409,377434,4623
1705466395371,473420,377461,4648
1705466395386,473437,377452,4610
1705466395402,473460,377408,4597
1705466395418,473232,377306,4536
1705466395433,473148,377255,4623
1705466395460,472984,377101,4590
1705466395476,472872,377001,4597
1705466395491,472951,376938,4623
1705466395507,472849,376957,4646
1705466395523,472812,376902,4665
1705466395538,472764,376836,4623
1705466395553,472810,376859,4626
1705466395569,472712,376902,4624
1705466395584,472819,376874,4652
1705466395600,472862,376897,4624
1705466395616,472745,376962,4623
1705466395631,472884,376918,4559
1705466395642,472880,376937,4625
1705466395658,472933,377010,4646
1705466395673,472881,376929,4534
1705466395689,472867,376928,4624
1705466395705,472918,376933,4538
1705466395720,473028,376984,4623
1705466395728,472956,376955,4625
1705466395744,473004,376928,4668
1705466395759,473069,376952,4626
1705466395775,473083,377018,4644
1705466395791,473056,377047,4679
1705466395806,473041,377122,4625
1705466395850,473127,376983,4662
1705466395866,473078,377142,4624
1705466395881,473107,377207,4655
1705466395897,473115,377205,4606
1705466395913,473105,377189,4625
1705466395928,473114,377224,4521
1705466395928,473175,377238,4621
1705466395944,473264,377275,4624
1705466395959,473281,377274,4612
1705466395975,473346,377326,4631
1705466395991,473340,377232,4612
1705466396006,473322,377345,4671
1705466396014,473350,377344,4626
1705466396030,473298,377453,4730
1705466396045,473315,377443,4624
1705466396061,473477,377460,4626
1705466396077,473440,377495,4678
1705466396092,473436,377565,4625
1705466396107,473600,377561,4559
1705466396123,473513,377557,4611
1705466396138,473553,377626,4583
1705466396154,473563,377455,4563
1705466396170,473419,377408,4624
1705466396185,473218,377314,4626
1705466396210,473143,377200,4625
1705466396226,473058,377089,4622
1705466396241,472995,377138,4693
1705466396257,472975,377115,4625
1705466396273,472927,376982,4595
1705466396288,472931,377036,4715
1705466396299,472966,377043,4622
1705466396315,472965,377104,4658
1705466396330,472989,377070,4640
1705466396346,473053,377119,4622
1705466396362,473051,377057,4587
1705466396377,473003,377064,4624
1705466396405,473039,377075,4622
1705466396421,473081,377091,4536
1705466396436,473100,377099,4623
1705466396452,473000,377085,4616
1705466396468,473200,377120,4627
1705466396483,473149,377005,4605
1705466396493,473065,377131,4647
1705466396509,473234,377090,4627
1705466396524,473180,377135,4682
1705466396540,473122,377207,4625
1705466396556,473194,377257,4630
1705466396571,473226,377215,4681
1705466396571,473190,377235,4629
1705466396587,473248,377364,4635
1705466396602,473285,377329,4543
1705466396618,473293,377394,4645
1705466396634,473367,377326,4581
1705466396649,473378,377386,4633
1705466396674,473274,377404,4624
1705466396690,473430,377419,4594
1705466396705,473471,377401,4624
1705466396721,473402,377461,4649
1705466396737,473528,377490,4654
1705466396752,473527,377463,4624
1705466396767,473539,377601,4625
1705466396783,473528,377541,4626
1705466396798,473546,377654,4641
1705466396814,473572,377630,4625
1705466396830,473661,377744,4628
1705466396845,473680,377771,4577
1705466396858,473646,377724,4627
1705466396874,473661,377792,4625
1705466396889,473658,377712,4538
1705466396905,473717,377642,4650
1705466396921,473545,377586,4624
1705466396936,473407,377449,4602
1705466396944,473248,377357,4623
1705466396960,473144,377368,4675
1705466396975,473225,377324,4624
1705466396991,473169,377274,4616
1705466397007,473160,377320,4718
1705466397022,473039,377339,4625
1705466397053,473253,377209,4619
1705466397069,473141,377285,4646
1705466397084,473222,377385,4634
1705466397100,473308,377293,4586
1705466397116,473332,377304,4621
1705466397131,473323,377325,4634
1705466397143,473347,377296,4645
1705466397159,473320,377302,4625
1705466397174,473315,377316,4599
1705466397190,473382,377344,4625
1705466397206,473376,377261,4645
1705466397221,473358,377391,4664
1705466397229,473455,377329,4619
1705466397245,473339,377369,4689
1705466397260,473367,377394,4657
1705466397276,473379,377377,4639
1705466397292,473379,377434,4657
1705466397307,473292,377458,4625
1705466397335,473398,377503,4626
1705466397351,473486,377480,4613
1705466397366,473493,377561,4623
1705466397382,473526,377535,4535
1705466397398,473565,377530,4628
1705466397413,473534,377552,4623
1705466397426,473556,377630,4623
1705466397442,473666,377554,4622
1705466397457,473639,377635,4607
1705466397473,473721,377726,4626
1705466397489,473690,377663,4641
1705466397504,473665,377739,4719
1705466397513,473645,377773,4627
1705466397529,473746,377821,4621
1705466397544,473697,377803,4644
1705466397560,473837,377901,4626
1705466397576,473845,377870,4536
1705466397591,473822,377833,4625
1705466397607,473817,377828,4615
1705466397623,473729,377782,4547
1705466397638,473608,377628,4624
1705466397654,473481,377553,4557
1705466397670,473434,377526,4618
1705466397685,473400,377374,4647
1705466397711,473379,377463,4648
1705466397727,473354,377434,4623
1705466397742,473352,377401,4623
1705466397758,473364,377492,4622
1705466397774,473361,377533,4622
1705466397789,473455,377516,4665
1705466397802,473500,377477,4633
1705466397818,473487,377577,4650
1705466397833,473463,377525,4534
1705466397849,473551,377505,4625
1705466397865,473529,377566,4540
1705466397880,473530,377574,4608
1705466397888,473495,377572,4607
1705466397904,473491,377600,4612
1705466397919,473547,377570,4622
1705466397935,473543,377527,4659
1705466397951,473476,377581,4668
1705466397966,473680,377565,4623
1705466397983,473532,377602,4663
1705466397999,473509,377679,4623
1705466398014,473580,377705,4625
1705466398030,473580,377711,4637
1705466398046,473487,377690,4622
1705466398061,473620,377786,4556
1705466398098,473599,377764,4596
1705466398114,473649,377894,4619
1705466398129,473725,377847,4589
1705466398145,473729,377820,4625
1705466398161,473713,377864,4625
1705466398176,473747,377938,4596
1705466398173,473742,377869,4626
1705466398189,473775,377944,4674
1705466398204,473877,377972,4625
1705466398220,473834,377970,4614
1705466398236,473816,377987,4718
1705466398251,473811,378070,4624
1705466398267,473939,378050,4623
1705466398283,473851,378080,4640
1705466398298,473930,378156,4644
1705466398314,473957,378085,4561
1705466398330,473934,378126,4622
1705466398345,474065,378231,4631
1705466398368,474035,378219,4632
1705466398384,474042,378200,4624
1705466398399,474033,378140,4619
1705466398415,473899,378061,4624
1705466398431,473712,377940,4580
1705466398446,473644,377969,4667
1705466398446,473575,377834,4599
1705466398462,473571,377773,4614
1705466398477,473431,377814,4649
1705466398493,473518,377844,4648
1705466398509,473539,377789,4675
1705466398524,473486,377767,4624
1705466398552,473596,377828,4622
1705466398568,473642,377875,4533
1705466398583,473573,377870,4621
1705466398599,473685,377832,4552
1705466398615,473701,377897,4622
1705466398630,473677,377849,4620
1705466398643,473736,377887,4622
1705466398659,473741,377810,4621
1705466398674,473702,377800,4655
1705466398690,473740,377844,4622
1705466398706,473764,377808,4618
1705466398721,473677,377917,4714
1705466398733,473662,377914,4629
1705466398749,473699,377937,4635
1705466398764,473754,377971,4678
1705466398780,473688,378008,4622
1705466398796,473778,378012,4545
1705466398811,473658,377946,4615
1705466398820,473776,378036,4608
1705466398836,473834,378028,4532
1705466398851,473898,378028,4620
1705466398867,473897,378004,4603
1705466398883,473926,378064,4595
1705466398898,473985,377996,4618
1705466398929,473938,378114,4597
1705466398945,474016,378152,4620
1705466398960,473960,378125,4637
1705466398976,474068,378177,4621
1705466398992,473988,378220,4620
1705466399007,474080,378159,4664
1705466399017,474134,378261,4623
1705466399033,474171,378372,4631
1705466399048,474159,378291,4532
1705466399064,474186,378356,4619
1705466399080,474262,378425,4619
1705466399095,474346,378403,4545
1705466399104,474310,378380,4617
1705466399120,474420,378421,4594
1705466399135,474342,378316,4620
1705466399151,474136,378264,4640
1705466399167,474077,378194,4652
1705466399182,473993,378082,4621
1705466399212,473875,378119,4662
1705466399228,473775,378019,4617
1705466399243,473862,378089,4632
1705466399259,473827,378024,4648
1705466399275,473840,378046,4598
1705466399290,473855,378118,4640
1705466399303,473889,378110,4611
1705466399319,473844,378126,4620
1705466399334,473961,378099,4531
1705466399350,473949,378136,4619
1705466399366,473963,378125,4591
1705466399381,473994,378132,4595
1705466399389,473979,378078,4606
1705466399405,473934,378091,4615
1705466399420,474056,378101,4658
1705466399436,473974,378151,4639
1705466399452,473965,378123,4715
1705466399467,473885,378175,4619
1705466399482,473998,378109,4617
1705466399498,473939,378242,4631
1705466399513,473918,378261,4619
1705466399529,474009,378227,4536
1705466399545,474002,378196,4617
1705466399560,474043,378267,4633
1705466399584,474055,378301,4623
1705466399600,474129,378242,4619
1705466399615,474137,378262,4535
1705466399631,474218,378319,4620
1705466399647,474179,378225,4615
1705466399662,474148,378340,4670
1705466399674,474234,378336,4596
1705466399690,474274,378358,4604
1705466399705,474302,378429,4674
1705466399721,474360,378478,4618
1705466399737,474362,378435,4659
1705466399752,474241,378476,4616
1705466399767,474428,378501,4619
1705466399783,474414,378503,4606
1705466399798,474384,378562,4618
1705466399814,474460,378595,4518
1705466399830,474457,378599,4599
1705466399845,474519,378596,4628
1705466399868,474508,378623,4619
1705466399884,474551,378583,4619
1705466399899,474373,378440,4603
1705466399915,474250,378432,4617
1705466399931,474177,378318,4616
1705466399946,474048,378332,4718
1705466399961,473983,378327,4594
1705466399977,474014,378338,4612
1705466399992,474020,378249,4670
1705466400008,474010,378286,4625
1705466400024,474045,378300,4602
1705466400039,474035,378233,4606
1705466400049,474167,378220,4609
1705466400065,474133,378329,4600
1705466400080,474221,378324,4615
1705466400096,474151,378363,4589
1705466400112,474188,378358,4590
1705466400127,474229,378286,4614
1705466400142,474183,378402,4654
1705466400158,474211,378401,4615
1705466400173,474192,378303,4615
1705466400189,474196,378416,4630
1705466400205,474116,378421,4615
1705466400220,474179,378416,4645
1705466400232,474186,378364,4597
1705466400248,474170,378458,4636
1705466400263,474165,378397,4557
1705466400279,474182,378449,4613
1705466400295,474299,378535,4621
1705466400310,474298,378468,4525
1705466400320,474182,378492,4639
1705466400336,474297,378559,4612
1705466400351,474423,378529,4616
1705466400367,474403,378514,4594
1705466400383,474425,378638,4668
1705466400398,474457,378593,4616
1705466400427,474458,378598,4652
1705466400443,474408,378625,4639
1705466400458,474472,378736,4615
1705466400474,474470,378669,4650
1705466400490,474420,378750,4615
1705466400505,474542,378796,4646
1705466400517,474580,378735,4599
1705466400533,474548,378803,4614
1705466400548,474647,378791,4563
1705466400564,474688,378776,4614
1705466400580,474647,378886,4614
1705466400595,474704,378790,4596
1705466400604,474669,378771,4616
1705466400620,474594,378696,4637
1705466400635,474438,378646,4643
1705466400651,474346,378520,4610
1705466400667,474181,378496,4704
1705466400682,474142,378498,4612
1705466400710,474159,378419,4620
1705466400726,474123,378448,4666
1705466400741,474048,378483,4611
1705466400757,474129,378413,4528
1705466400773,474125,378466,4627
1705466400788,474224,378495,4613
1705466400802,474205,378509,4614
1705466400818,474292,378459,4611
1705466400833,474234,378431,4612
1705466400849,474282,378462,4629
1705466400865,474275,378401,4610
1705466400880,474247,378444,4665
1705466400892,474310,378417,4612
1705466400908,474209,378395,4627
1705466400923,474219,378431,4691
1705466400939,474215,378484,4609
1705466400955,474222,378460,4654
1705466400970,474208,378467,4633
1705466400979,474275,378476,4603
1705466400995,474287,378454,4549
1705466401010,474198,378555,4611
1705466401026,474304,378525,4595
1705466401042,474343,378551,4522
1705466401057,474402,378500,4611
1705466401086,474424,378559,4608
1705466401102,474480,378607,4616
1705466401117,474435,378469,4635
1705466401133,474436,378593,4612
1705466401149,474455,378523,4613
1705466401164,474518,378666,4637
1705466401177,474484,378617,4613
1705466401193,474541,378697,4626
1705466401208,474538,378731,4647
1705466401224,474616,378785,4611
1705466401240,474569,378784,4632
1705466401255,474669,378751,4524
1705466401264,474644,378785,4616
1705466401280,474587,378681,4524
1705466401295,474549,378652,4608
1705466401311,474291,378547,4627
1705466401327,474190,378511,4581
1705466401342,474205,378373,4608
1705466401358,474097,378407,4616
1705466401374,474052,378374,4610
1705466401389,474009,378232,4627
1705466401405,474046,378340,4638
1705466401421,473954,378277,4610
1705466401436,473971,378276,4603
1705466401459,474002,378270,4607
1705466401475,474017,378357,4610
1705466401490,474064,378293,4522
1705466401506,473943,378318,4614
1705466401522,474037,378350,4609
1705466401537,474078,378292,4524
1705466401549,474022,378273,4608
1705466401565,474061,378295,4523
1705466401580,474095,378266,4603
1705466401596,474021,378250,4598
1705466401612,474046,378242,4659
1705466401627,474165,378302,4609
1705466401642,474147,378298,4609
1705466401658,474046,378317,4637
1705466401673,474040,378326,4609
1705466401689,474078,378340,4668
1705466401705,474005,378293,4610
1705466401720,474090,378405,4637
1705466401732,474142,378365,4597
1705466401748,474083,378415,4605
1705466401763,474128,378441,4564
1705466401779,474133,378412,4609
1705466401795,474151,378455,4610
1705466401810,474181,378433,4581
1705466401819,474269,378491,4623
1705466401835,474258,378472,4597
1705466401850,474237,378456,4651
1705466401866,474191,378538,4626
1705466401882,474256,378487,4685
1705466401897,474238,378531,4607
1705466401941,474349,378578,4622
1705466401957,474384,378590,4661
1705466401972,474319,378654,4610
1705466401988,474415,378671,4540
1705466402004,474461,378647,4594
1705466402019,474426,378746,4601
1705466402029,474584,378670,4598
1705466402045,474622,378695,4607
1705466402060,474456,378669,4607
1705466402076,474353,378529,4606
1705466402092,474179,378383,4604
1705466402107,473994,378352,4657
1705466402107,473940,378244,4612
1705466402123,473802,378124,4586
1705466402138,473698,378136,4698
1705466402154,473674,378084,4606
1705466402170,473571,378051,4637
1705466402185,473486,377962,4619
1705466402194,473544,377943,4610
1705466402210,473450,377902,4591
1705466402225,473437,377886,4605
1705466402241,473468,377955,4612
1705466402257,473525,377902,4517
1705466402272,473542,377917,4607
1705466402302,473523,377873,4603
1705466402318,473536,377847,4608
1705466402333,473493,377735,4586
1705466402349,473427,377889,4638
1705466402365,473514,377845,4605
1705466402380,473401,377758,4643
1705466402393,473425,377804,4606
1705466402409,473424,377867,4610
1705466402424,473491,377853,4660
1705466402440,473447,377855,4605
1705466402456,473515,377866,4616
1705466402471,473477,377852,4525
1705466402478,473535,377897,4605
1705466402494,473511,377870,4628
1705466402509,473609,377923,4616
1705466402525,473587,377928,4548
1705466402541,473488,377918,4577
1705466402556,473583,377896,4604
1705466402587,473533,378017,4628
1705466402603,473590,377984,4635
1705466402618,473627,377937,4602
1705466402634,473598,378046,4634
1705466402650,473561,378003,4606
1705466402665,473680,378048,4617
1705466402677,473678,378058,4608
1705466402693,473612,378146,4605
1705466402708,473744,378129,4558
1705466402724,473613,378103,4582
1705466402740,473796,378152,4613
1705466402755,473744,378104,4572
1705466402765,473753,378104,4605
1705466402781,473690,378064,4603
1705466402796,473562,377929,4579
1705466402812,473387,377812,4601
1705466402828,473197,377742,4656
1705466402843,473126,377632,4603
1705466402858,472971,377593,4603
1705466402874,472891,377540,4695
1705466402889,472862,377472,4603
1705466402905,472904,377414,4623
1705466402921,472759,377368,4626
1705466402936,472757,377407,4615
1705466402960,472788,377368,4627
1705466402976,472734,377378,4604
1705466402991,472796,377343,4591
1705466403007,472857,377297,4604
1705466403023,472835,377264,4603
1705466403038,472803,377232,4579
1705466403063,472739,377200,4603
1705466403079,472709,377161,4626
1705466403094,472793,377295,4638
1705466403110,472757,377161,4603
1705466403126,472780,377232,4663
1705466403141,472708,377150,4633
1705466403139,472713,377195,4602
1705466403155,472714,377249,4661
1705466403170,472588,377241,4603
1705466403186,472752,377217,4596
1705466403202,472796,377232,4528
1705466403217,472726,377287,4560
1705466403231,472757,377242,4581
1705466403247,472824,377248,4615
1705466403262,472795,377286,4604
1705466403278,472754,377285,4609
1705466403294,472858,377276,4603
1705466403309,472841,377369,4567
1705466403335,472889,377321,4586
1705466403351,472874,377361,4622
1705466403366,472874,377378,4661
1705466403382,472848,377425,4607
1705466403398,472891,377467,4599
1705466403413,472950,377468,4627
1705466403424,472911,377504,4599
1705466403440,473039,377467,4514
1705466403455,472937,377491,4605
1705466403471,473081,377511,4604
1705466403487,473087,377533,4513
1705466403502,473119,377510,4597
1705466403516,473074,377458,4585
1705466403532,472853,377347,4601
1705466403547,472653,377162,4628
1705466403563,472499,377138,4622
1705466403579,472433,376999,4605
1705466403594,472274,376913,4588
1705466403607,472190,376882,4583
1705466403623,472066,376883,4600
1705466403638,472077,376785,4642
1705466403654,471871,376720,4603
1705466403670,471978,376757,4627
1705466403685,471938,376624,4519
1705466403694,471903,376652,4570
1705466403710,472007,376623,4492
1705466403725,472006,376668,4587
1705466403741,472009,376653,4579
1705466403757,471998,376584,4575
1705466403772,472049,376594,4602
1705466403802,471875,376554,4608
1705466403818,471941,376569,4622
1705466403833,471907,376493,4604
1705466403849,471913,376564,4702
1705466403865,471846,376575,4603
1705466403880,471929,376543,4599
1705466403892,471860,376547,4562
1705466403908,471777,376627,4603
1705466403923,471872,376614,4568
1705466403939,471896,376588,4604
1705466403955,471846,376651,4595
1705466403970,471878,376652,4515
1705466403979,471845,376667,4604
1705466403995,471939,376621,4574
1705466404010,471954,376651,4577
1705466404026,472050,376583,4603
1705466404042,471987,376678,4670
1705466404057,472154,376709,4603
1705466404083,472075,376751,4570
1705466404099,472040,376738,4682
1705466404114,472038,376774,4605
1705466404130,472107,376807,4624
1705466404146,472074,376833,4623
1705466404161,472103,376938,4604
1705466404180,472169,376823,4619
1705466404196,472160,376787,4604
1705466404211,472234,377000,4608
1705466404227,472260,376965,4608
1705466404243,472365,376963,4606
1705466404258,472227,376960,4598
1705466404268,472162,376916,4606
1705466404284,472109,376799,4600
1705466404299,471928,376740,4654
1705466404315,471799,376613,4603
1705466404331,471568,376466,4666
1705466404346,471409,376395,4629
1705466404354,471415,376378,4605
1705466404370,471315,376301,4621
1705466404385,471200,376292,4600
1705466404401,471244,376230,4612
1705466404417,471227,376185,4513
1705466404432,471087,376226,4609
1705466404459,471160,376142,4548
1705466404475,471326,376158,4612
1705466404490,471215,376133,4602
1705466404506,471225,376078,4587
1705466404522,471255,376091,4602
1705466404537,471182,376097,4648
1705466404553,471152,376084,4637
1705466404569,471186,376014,4613
1705466404584,471191,376086,4695
1705466404600,471074,376076,4601
1705466404616,471114,376110,4617
1705466404631,471158,376087,4645
1705466404638,471117,376082,4602
1705466404654,471118,376136,4559
1705466404669,471120,376133,4602
1705466404685,471164,376218,4609
1705466404701,471154,376204,4521
1705466404716,471214,376119,4604
1705466404732,471195,376206,4604
1705466404748,471193,376175,4581
1705466404763,471198,376191,4603
1705466404779,471204,376275,4633
1705466404795,471245,376325,4603
1705466404810,471261,376242,4604
1705466404834,471308,376340,4594
1705466404850,471205,376403,4605
1705466404865,471290,376457,4638
1705466404881,471221,376410,4602
1705466404897,471339,376560,4617
1705466404912,471338,376444,4521
1705466404923,471398,376507,4607
1705466404939,471335,376540,4615
1705466404954,471433,376554,4609
1705466404970,471466,376527,4604
1705466404986,471421,376561,4573
1705466405001,471458,376549,4604
1705466405017,471348,376494,4654
1705466405033,471200,376416,4657
1705466405048,471072,376221,4601
1705466405064,470826,376187,4642
1705466405080,470601,376101,4628
1705466405095,470609,376044,4601
1705466405107,470482,376024,4562
1705466405123,470448,375947,4600
1705466405138,470474,375933,4622
1705466405154,470444,375818,4599
1705466405170,470337,375895,4602
1705466405185,470412,375847,4512
1705466405209,470465,375853,4600
1705466405225,470455,375841,4601
1705466405240,470479,375876,4578
1705466405256,470497,375809,4605
1705466405272,470424,375845,4585
1705466405287,470486,375828,4641
1705466405299,470505,375787,4603
1705466405315,470445,375804,4695
1705466405330,470372,375852,4604
1705466405346,470489,375843,4613
1705466405362,470457,375829,4625
1705466405377,470328,375908,4603
1705466405401,470477,375886,4589
1705466405417,470431,375862,4580
1705466405432,470457,375935,4619
1705466405448,470461,375884,4617
1705466405464,470554,375893,4602
1705466405479,470495,375963,4521
1705466405492,470519,375951,4637
1705466405508,470591,375920,4626
1705466405523,470553,376000,4633
1705466405539,470580,376067,4600
1705466405555,470634,376030,4590
1705466405570,470649,376066,4658
1705466405569,470622,376094,4575
1705466405585,470693,376110,4658
1705466405600,470572,376146,4601
1705466405616,470687,376214,4588
1705466405632,470728,376202,4503
1705466405647,470695,376308,4602
1705466405678,470782,376282,4555
1705466405694,470877,376299,4587
1705466405709,470854,376274,4602
1705466405725,470901,376334,4598
1705466405741,470969,376411,4603
1705466405756,470928,376315,4587
1705466405794,470898,376353,4580
1705466405810,470886,376237,4603
1705466405825,470618,376226,4607
1705466405841,470389,376120,4600
1705466405857,470330,376037,4599
1705466405872,470215,375968,4654
1705466405854,470131,375822,4599
1705466405870,470087,375868,4533
1705466405885,470063,375773,4585
1705466405901,470007,375789,4599
1705466405917,469981,375729,4519
1705466405932,470084,375697,4595
1705466405960,470048,375725,4609
1705466405976,470104,375723,4576
1705466405991,470167,375664,4600
1705466406007,470127,375723,4668
1705466406023,470177,375761,4602
1705466406038,470106,375689,4561
1705466406066,470179,375745,4613
1705466406082,470048,375750,4602
1705466406097,470135,375753,4615
1705466406113,470140,375720,4606
1705466406129,470130,375809,4602
1705466406144,470174,375743,4521
1705466406138,470159,375779,4602
1705466406154,470119,375822,4598
1705466406169,470152,375793,4511
1705466406185,470196,375802,4600
1705466406201,470152,375794,4592
1705466406216,470309,375871,4603
1705466406228,470271,375850,4601
1705466406244,470284,375918,4657
1705466406259,470413,375920,4600
1705466406275,470349,375900,4647
1705466406291,470297,376023,4619
1705466406306,470386,376082,4604
1705466406334,470524,376057,4625
1705466406350,470375,376074,4605
1705466406365,470516,376176,4612
1705466406381,470536,376105,4603
1705466406397,470467,376189,4603
1705466406412,470642,376193,4551
1705466406427,470673,376193,4616
1705466406443,470689,376198,4604
1705466406458,470756,376257,4575
1705466406474,470766,376262,4623
1705466406490,470828,376311,4621
1705466406505,470908,376373,4634
1705466406513,470904,376382,4601
1705466406529,470784,376326,4680
1705466406544,470623,376218,4602
1705466406560,470524,376119,4602
1705466406576,470362,375968,4654
1705466406591,470177,375980,4597
1705466406610,470175,375810,4545
1705466406626,470078,375831,4615
1705466406641,470121,375814,4605
1705466406657,470024,375730,4607
1705466406673,470108,375716,4600
1705466406688,470163,375767,4603
1705466406710,470122,375743,4574
1705466406726,470163,375643,4601
1705466406741,470153,375743,4653
1705466406757,470231,375717,4600
1705466406773,470131,375728,4602
1705466406788,470180,375787,4693
1705466406799,470187,375783,4605
1705466406815,470194,375762,4644
1705466406830,470146,375794,4602
1705466406846,470255,375806,4613
1705466406862,470201,375804,4564
1705466406877,470152,375864,4603
1705466406904,470239,375759,4579
1705466406920,470296,375819,4529
1705466406935,470273,375834,4603
1705466406951,470289,375897,4587
1705466406967,470320,375836,4600
1705466406982,470302,375773,4626
1705466406982,470341,375868,4602
1705466406998,470400,375929,4605
1705466407013,470403,375965,4676
1705466407029,470349,376013,4601
1705466407045,470487,376055,4648
1705466407060,470462,376023,4656
1705466407071,470476,376091,4603
1705466407087,470551,376167,4625
1705466407102,470543,376148,4531
1705466407118,470647,376210,4604
1705466407134,470652,376142,4510
1705466407149,470708,376182,4603
1705466407176,470671,376211,4572
1705466407192,470746,376238,4574
1705466407207,470790,376194,4600
1705466407223,470768,376310,4612
1705466407239,470852,376242,4643
1705466407254,470896,376313,4619
1705466407267,470863,376356,4599
1705466407283,470796,376334,4600
1705466407298,470670,376221,4609
1705466407314,470458,376079,4598
1705466407330,470316,376067,4600
1705466407345,470210,375937,4500
1705466407355,470073,375863,4646
1705466407371,470107,375875,4614
1705466407386,470093,375781,4532
1705466407402,470076,375715,4600
1705466407418,470036,375696,4513
1705466407433,470158,375760,4598
1705466407444,470104,375731,4606
1705466407460,470072,375739,4652
1705466407475,470244,375717,4601
1705466407491,470205,375808,4611
1705466407507,470154,375727,4659
1705466407522,470168,375810,4600
1705466407552,470196,375732,4622
1705466407568,470109,375727,4599
1705466407583,470217,375822,4631
1705466407599,470228,375771,4617
1705466407615,470119,375806,4601
1705466407630,470228,375796,4559
1705466407653,470269,375797,4618
1705466407669,470291,375812,4600
1705466407684,470229,375799,4591
1705466407700,470344,375841,4600
1705466407716,470286,375808,4581
1705466407731,470318,375877,4644
1705466407730,470374,375977,4578
1705466407746,470377,375984,4663
1705466407761,470351,375965,4601
1705466407777,470414,375936,4598
1705466407793,470442,375992,4656
1705466407808,470354,376114,4600
1705466407835,470461,376053,4534
1705466407851,470466,376108,4555
1705466407866,470530,376185,4593
1705466407882,470577,376143,4527
1705466407898,470730,376140,4602
1705466407913,470679,376189,4599
1705466407939,470769,376252,4601
1705466407955,470798,376109,4602
1705466407970,470836,376296,4616
1705466407986,470901,376242,4602
1705466408002,470886,376260,4588
1705466408017,470907,376361,4694
1705466408015,470976,376276,4602
1705466408031,470862,376283,4633
1705466408046,470697,376169,4612
1705466408062,470541,376150,4603
1705466408078,470442,375971,4500
1705466408093,470187,375952,4599
1705466408107,470172,375809,4613
1705466408123,470155,375719,4509
1705466408138,470182,375727,4598
1705466408154,470116,375747,4594
1705466408170,470205,375745,4601
1705466408185,470062,375615,4580
1705466408210,470141,375698,4619
1705466408226,470251,375668,4600
1705466408241,470264,375617,4655
1705466408257,470173,375730,4600
1705466408273,470240,375771,4602
1705466408288,470261,375709,4651
1705466408299,470260,375744,4577
1705466408315,470296,375783,4610
1705466408330,470285,375735,4518
1705466408346,470260,375771,4600
1705466408362,470231,375738,4534
1705466408377,470383,375765,4608
1705466408389,470304,375716,4645
1705466408405,470309,375727,4571
1705466408420,470366,375754,4603
1705466408436,470388,375770,4621
1705466408452,470455,375802,4625
1705466408467,470382,375750,4596
1705466408482,470403,375866,4616
1705466408498,470384,375880,4598
1705466408513,470468,375939,4614
1705466408529,470506,375898,4600
1705466408545,470404,376008,4600
1705466408560,470582,375979,4552
1705466408585,470533,375987,4600
1705466408601,470573,376115,4607
1705466408616,470646,376039,4509
1705466408632,470572,376103,4597
1705466408648,470592,376108,4598
1705466408663,470760,376121,4577
1705466408673,470775,376098,4596
1705466408689,470768,376173,4653
1705466408704,470870,376208,4597
1705466408720,470907,376238,4599
1705466408736,470873,376242,4688
1705466408751,470877,376300,4579
1705466408767,470909,376261,4592
1705466408783,470861,376240,4622
1705466408798,470799,376319,4610
1705466408814,470637,376063,4599
1705466408830,470499,376049,4598
1705466408845,470363,375923,4612
1705466408857,470340,375783,4558
1705466408873,470265,375737,4596
1705466408888,470185,375709,4569
1705466408904,470205,375728,4602
1705466408920,470229,375579,4598
1705466408935,470205,375717,4652
1705466408959,470270,375726,4605
1705466408975,470273,375718,4659
1705466408990,470314,375762,4629
1705466409006,470377,375747,4615
1705466409022,470417,375713,4651
1705466409037,470287,375727,4600
1705466409056,470306,375720,4603
1705466409072,470384,375778,4520
1705466409087,470379,375789,4597
1705466409103,470381,375737,4507
1705466409119,470489,375777,4598
1705466409134,470424,375724,4599
1705466409142,470456,375814,4603
1705466409158,470406,375755,4613
1705466409173,470405,375846,4584
1705466409189,470541,375744,4598
1705466409205,470477,375759,4609
1705466409220,470549,375894,4691
1705466409230,470582,375871,4598
1705466409246,470540,375942,4592
1705466409261,470575,375975,4606
1705466409277,470624,376060,4599
1705466409293,470572,375968,4518
1705466409308,470556,375999,4595
1705466409350,470639,376041,4577
1705466409366,470715,376024,4526
1705466409381,470796,376013,4595
1705466409397,470732,376119,4564
1705466409413,470815,376128,4595
1705466409428,470841,376067,4620
1705466409427,470882,376218,4598
1705466409443,470879,376193,4597
1705466409458,470959,376150,4599
1705466409474,470945,376203,4598
1705466409490,470990,376284,4599
1705466409505,471058,376296,4658
1705466409530,471040,376287,4614
1705466409546,471017,376333,4656
1705466409561,470955,376177,4497
1705466409577,470771,376164,4598
1705466409593,470659,376013,4586
1705466409608,470607,375976,4580
1705466409604,470447,375868,4598
1705466409620,470383,375804,4569
1705466409635,470473,375795,4596
1705466409651,470405,375757,4580
1705466409667,470464,375800,4642
1705466409682,470477,375760,4597
1705466409709,470512,375820,4646
1705466409725,470468,375840,4596
1705466409740,470562,375889,4607
1705466409756,470600,375913,4612
1705466409772,470556,375946,4597
1705466409787,470523,375844,4549
1705466409802,470555,375833,4595
1705466409818,470590,375909,4590
1705466409833,470586,375896,4525
1705466409849,470645,375842,4595
1705466409865,470600,375929,4598
1705466409880,470620,375903,4564
1705466409903,470584,375918,4607
1705466409919,470656,375918,4667
1705466409934,470692,375931,4597
1705466409950,470613,375963,4583
1705466409966,470701,375966,4688
1705466409981,470634,375931,4598
1705466409982,470723,375997,4594
1705466409998,470765,376073,4612
1705466410013,470720,376135,4609
1705466410029,470685,376082,4544
1705466410045,470765,376171,4597
1705466410060,470847,376213,4604
1705466410084,470861,376188,4593
1705466410100,470981,376180,4599
1705466410115,470963,376236,4594
1705466410131,471067,376178,4600
1705466410147,470975,376185,4574
1705466410162,470999,376297,4650
1705466410174,471087,376286,4602
1705466410190,471058,376256,4649
1705466410205,471055,376361,4625
1705466410221,471165,376416,4601
1705466410237,471229,376370,4657
1705466410252,471115,376438,4595
1705466410266,471232,376388,4638
1705466410282,471181,376347,4510
1705466410297,471013,376417,4596
1705466410313,471000,376258,4526
1705466410329,470848,376105,4601
1705466410344,470733,376091,4596
1705466410356,470692,376066,4596
1705466410372,470710,375983,4594
1705466410387,470636,376008,4636
1705466410403,470683,376010,4603
1705466410419,470747,375946,4591
1705466410434,470732,376067,4651
1705466410473,470745,376092,4595
1705466410489,470838,376093,4611
1705466410504,470852,376070,4647
1705466410520,470909,376129,4596
1705466410536,470888,376114,4551
1705466410551,470842,376078,4609
1705466410548,470904,376085,4622
1705466410564,470928,376126,4506
1705466410579,470985,376121,4597
1705466410595,470914,376099,4594
1705466410611,470940,376093,4574
1705466410626,470932,376073,4590
1705466410654,470864,376181,4623
1705466410670,471016,376165,4596
1705466410685,470909,376099,4614
1705466410701,470956,376181,4592
1705466410717,470939,376210,4596
1705466410732,470994,376214,4638
1705466410743,470939,376225,4630
1705466410759,471098,376331,4603
1705466410774,471099,376275,4512
1705466410790,471062,376305,4597
1705466410806,471140,376356,4607
1705466410821,471186,376366,4512
1705466410820,471196,376401,4594
1705466410836,471183,376356,4566
1705466410851,471305,376393,4596
1705466410867,471232,376463,4596
1705466410883,471311,376457,4648
1705466410898,471381,376474,4594
1705466410926,471409,376554,4590
1705466410942,471400,376602,4625
1705466410957,471471,376588,4608
1705466410973,471440,376617,4609
1705466410989,471453,376609,4596
1705466411004,471503,376705,4615
1705466411030,471602,376605,4596
1705466411046,471462,376705,4562
1705466411061,471347,376511,4505
1705466411077,471231,376424,4594
1705466411093,471143,376378,4575
1705466411108,471059,376321,4572
1705466411108,471094,376218,4618
1705466411124,471050,376312,4588
1705466411139,471053,376188,4635
1705466411155,471057,376225,4611
1705466411171,471086,376290,4685
1705466411186,471045,376308,4592
1705466411208,471161,376357,4597
1705466411224,471127,376359,4616
1705466411239,471115,376436,4592
1705466411255,471184,376351,4579
1705466411271,471121,376322,4595
1705466411286,471254,376463,4608
1705466411302,471159,376419,4593
1705466411318,471215,376356,4595
1705466411333,471209,376367,4503
1705466411349,471251,376399,4594
1705466411365,471218,376297,4593
1705466411380,471266,376440,4644
1705466411389,471237,376464,4563
1705466411405,471316,376404,4581
1705466411420,471317,376490,4648
1705466411436,471327,376528,4619
1705466411452,471365,376495,4653
1705466411467,471301,376497,4592
1705466411482,471390,376554,4591
1705466411498,471391,376544,4557
1705466411513,471376,376619,4592
1705466411529,471468,376567,4554
1705466411545,471548,376636,4575
1705466411560,471597,376591,4592
1705466411586,471505,376648,4595
1705466411602,471622,376715,4590
1705466411617,471603,376621,4577
1705466411633,471673,376717,4594
1705466411649,471690,376723,4589
1705466411664,471672,376738,4692
1705466411676,471727,376789,4593
1705466411692,471671,376854,4617
1705466411707,471748,376870,4644
1705466411723,471815,376938,4589
1705466411739,471833,376902,4536
1705466411754,471772,376857,4599
1705466411763,471778,376841,4590
1705466411779,471614,376763,4506
1705466411794,471526,376696,4590
1705466411810,471413,376581,4594
1705466411826,471371,376594,4562
1705466411841,471335,376453,4589
1705466411857,471255,376531,4637
1705466411873,471247,376514,4590
1705466411888,471326,376477,4577
1705466411904,471355,376498,4608
1705466411920,471308,376582,4589
1705466411935,471353,376619,4618
1705466411958,471339,376613,4590
1705466411974,471355,376677,4589
1705466411989,471413,376631,4488
1705466412005,471396,376640,4587
1705466412021,471500,376637,4596
1705466412036,471479,376615,4499
1705466412048,471442,376654,4602
1705466412064,471471,376690,4595
1705466412079,471546,376633,4593
1705466412095,471484,376611,4566
1705466412111,471504,376676,4618
1705466412126,471535,376639,4587
1705466412142,471534,376704,4665
1705466412158,471517,376676,4615
1705466412173,471562,376759,4589
1705466412189,471593,376722,4625
1705466412205,471562,376744,4589
1705466412220,471650,376847,4588
1705466412233,471656,376762,4590
1705466412249,471619,376861,4581
1705466412264,471663,376808,4537
1705466412280,471830,376838,4604
1705466412296,471750,376890,4586
1705466412311,471826,376896,4551
1705466412319,471813,376913,4588
1705466412335,471833,376835,4632
1705466412350,471882,376969,4619
1705466412366,471864,376920,4586
1705466412382,471927,377014,4618
1705466412397,471835,377006,4586
1705466412426,471950,376997,4587
1705466412442,471970,377100,4639
1705466412457,471887,377165,4589
1705466412473,472065,377123,4519
1705466412489,471963,377093,4602
1705466412504,471976,377074,4543
1705466412517,471836,376939,4586
1705466412533,471750,376933,4583
1705466412548,471549,376762,4582
1705466412564,471498,376765,4585
1705466412580,471475,376660,4582
1705466412595,471503,376756,4637
1705466412608,471473,376707,4588
1705466412624,471498,376670,4603
1705466412639,471547,376824,4677
1705466412655,471513,376823,4585
1705466412671,471589,376808,4648
1705466412686,471532,376754,4608
1705466412696,471637,376815,4594
1705466412712,471642,376808,4496
1705466412727,471600,376867,4585
1705466412743,471664,376833,4579
1705466412759,471745,376814,4502
1705466412774,471705,376774,4587
1705466412802,471720,376843,4558
1705466412818,471724,376872,4584
1705466412833,471740,376765,4608
1705466412849,471706,376832,4584
1705466412865,471850,376798,4582
1705466412880,471731,376839,4647
1705466412893,471724,376901,4576
1705466412909,471834,376971,4597
1705466412924,471828,376939,4640
1705466412940,471801,376957,4585
1705466412956,471910,376997,4606
1705466412971,471868,376982,4507
1705466412984,471867,377022,4572
1705466413000,471884,377037,4511
1705466413015,472026,377041,4585
1705466413031,471964,377044,4566
1705466413047,471928,377067,4556
1705466413062,472054,376980,4583
1705466413083,472056,377083,4590
1705466413099,472140,377097,4624
1705466413114,472147,377086,4601
1705466413130,472108,377199,4588
1705466413146,472028,377213,4583
1705466413161,472167,377264,4579
1705466413175,472133,377263,4582
1705466413191,472145,377341,4582
1705466413206,472261,377237,4505
1705466413222,472115,377190,4582
1705466413238,472038,377218,4582
1705466413253,471879,377049,4493
1705466413264,471756,376893,4572
1705466413280,471676,376935,4496
1705466413295,471747,376900,4567
1705466413311,471579,376796,4563
1705466413327,471613,376853,4634
1705466413342,471734,376886,4584
1705466413357,471713,376861,4555
1705466413373,471667,376868,4622
1705466413388,471723,376908,4581
1705466413404,471740,376911,4633
1705466413420,471619,376939,4581
1705466413435,471777,376997,4610
1705466413459,471789,376919,4595
1705466413475,471758,376958,4583
1705466413490,471743,376845,4540
1705466413506,471795,376897,4578
1705466413522,471772,376915,4579
1705466413537,471796,376880,4557
1705466413549,471809,376909,4579
1705466413565,471854,376854,4587
1705466413580,471852,376933,4625
1705466413596,471794,376880,4568
1705466413612,471857,376944,4681
1705466413627,471790,376982,4579
1705466413642,471863,377020,4572
1705466413658,471881,376970,4624
1705466413673,471863,377100,4580
1705466413689,471942,377066,4562
1705466413705,471984,377033,4540
1705466413720,471906,377121,4574
1705466413744,472061,377041,4589
1705466413760,472098,377065,4580
1705466413775,472078,377095,4582
1705466413791,472058,377137,4578
1705466413807,472181,377088,4578
1705466413822,472074,377158,4629
1705466413835,472130,377180,4580
1705466413851,472176,377125,4581
1705466413866,472202,377232,4674
1705466413882,472193,377283,4536
1705466413898,472205,377212,4612
1705466413913,472085,377187,4596
1705466413923,472002,377103,4587
1705466413939,471875,377011,4497
1705466413954,471637,376905,4579
1705466413970,471582,376841,4584
1705466413986,471617,376745,4561
1705466414001,471545,376735,4576
1705466414018,471544,376725,4578
1705466414034,471523,376689,4581
1705466414049,471525,376682,4558
1705466414065,471538,376750,4598
1705466414081,471619,376696,4581
1705466414096,471622,376719,4610
1705466414107,471555,376730,4580
1705466414123,471628,376782,4581
1705466414138,471596,376783,4630
1705466414154,471533,376783,4582
1705466414170,471581,376837,4614
1705466414185,471651,376730,4490
1705466414193,471676,376777,4580
1705466414209,471621,376733,4581
1705466414224,471730,376718,4587
1705466414240,471632,376779,4559
1705466414256,471621,376757,4551
1705466414271,471698,376745,4579
1705466414303,471625,376717,4560
1705466414319,471648,376713,4608
1705466414334,471673,376720,4575
1705466414350,471658,376806,4634
1705466414366,471617,376798,4577
1705466414381,471657,376840,4579
1705466414393,471782,376854,4582
1705466414409,471674,376887,4576
1705466414424,471772,376931,4531
1705466414440,471701,376781,4576
1705466414456,471755,377039,4584
1705466414471,471816,376949,4511
1705466414480,471898,376939,4575
1705466414496,471928,376966,4575
1705466414511,471940,377038,4554
1705466414527,471952,376917,4590
1705466414543,471948,376987,4611
1705466414558,472039,377059,4579
1705466414584,471972,377043,4614
1705466414600,472054,377096,4669
1705466414615,472064,377129,4577
1705466414631,472118,377107,4621
1705466414647,471854,377032,4596
1705466414662,471829,376988,4590
1705466414677,471640,376834,4583
1705466414693,471386,376732,4575
1705466414708,471365,376684,4585
1705466414724,471323,376516,4609
1705466414740,471199,376455,4571
1705466414755,471143,376440,4545
1705466414768,471207,376415,4567
1705466414784,471154,376331,4596
1705466414799,471139,376351,4615
1705466414815,471088,376245,4575
1705466414831,471123,376370,4566
1705466414846,471137,376282,4604
1705466414856,471171,376324,4602
1705466414872,471163,376390,4630
1705466414887,471158,376321,4571
1705466414903,471125,376323,4581
1705466414919,471100,376274,4490
1705466414934,471046,376318,4574
1705466414959,471110,376183,4557
1705466414975,471199,376276,4575
1705466414990,471140,376230,4552
1705466415006,471066,376260,4543
1705466415022,471225,376174,4573
1705466415037,471143,376257,4565
1705466415051,471224,376261,4611
1705466415067,471150,376225,4592
1705466415082,471098,376321,4668
1705466415098,471155,376348,4576
1705466415114,471197,376367,4573
1705466415129,471234,376306,4597
1705466415138,471201,376369,4579
1705466415154,471194,376379,4494
1705466415169,471264,376422,4572
1705466415185,471253,376382,4564
1705466415201,471274,376387,4487
1705466415216,471290,376326,4572
1705466415232,471264,376423,4587
1705466415248,471398,376500,4573
1705466415263,471326,376354,4598
1705466415279,471402,376516,4583
1705466415295,471413,376539,4574
1705466415310,471399,376485,4561
1705466415333,471442,376578,4580
1705466415349,471421,376552,4567
1705466415364,471415,376502,4632
1705466415380,471193,376439,4572
1705466415396,471086,376402,4600
1705466415411,470886,376258,4512
1705466415423,470730,376116,4569
1705466415439,470709,376038,4529
1705466415454,470594,375980,4538
1705466415470,470583,375913,4540
1705466415486,470525,375906,4541
1705466415501,470612,375872,4568
1705466415518,470505,375788,4569
1705466415534,470525,375799,4613
1705466415549,470575,375719,4569
1705466415565,470505,375808,4647
1705466415581,470498,375742,4504
1705466415596,470568,375802,4571
1705466415608,470571,375759,4570
1705466415624,470465,375788,4569
1705466415639,470536,375723,4502
1705466415655,470485,375774,4569
1705466415671,470544,375712,4564
1705466415686,470519,375675,4483
1705466415694,470487,375654,4572
1705466415710,470474,375651,4577
1705466415725,470522,375701,4542
1705466415741,470554,375640,4571
1705466415757,470538,375709,4630
1705466415772,470624,375728,4573
1705466415800,470553,375734,4574
1705466415816,470594,375810,4665
1705466415831,470472,375745,4572
1705466415847,470588,375783,4590
1705466415863,470552,375835,4567
1705466415878,470671,375913,4571
1705466415893,470650,375788,4581
1705466415909,470669,375810,4572
1705466415924,470690,375929,4580
1705466415940,470706,375882,4580
1705466415956,470776,375904,4575
1705466415971,470733,375949,4560
1705466415994,470803,375893,4588
1705466416010,470736,375862,4548
1705466416025,470825,375949,4624
1705466416041,470834,375983,4529
1705466416057,470832,375928,4642
1705466416072,470774,375978,4599
1705466416068,470880,375961,4572
1705466416084,470699,375840,4613
1705466416099,470391,375809,4570
1705466416115,470293,375617,4595
1705466416131,470194,375532,4495
1705466416146,470009,375439,4571
1705466416176,470025,375436,4516
1705466416192,469986,375305,4575
1705466416207,470018,375257,4516
1705466416223,470023,375251,4543
1705466416239,470005,375199,4570
1705466416254,470017,375156,4612
1705466416273,470051,375161,4568
1705466416289,470042,375175,4571
1705466416304,470016,375172,4663
1705466416320,470043,375226,4548
1705466416336,470006,375224,4584
1705466416351,470059,375201,4626
1705466416355,469991,375173,4540
1705466416371,470015,375185,4531
1705466416386,469963,375174,4586
1705466416402,470015,375175,4579
1705466416418,470054,375121,4558
1705466416433,470045,375150,4572
1705466416449,470030,375166,4569
1705466416465,470037,375135,4548
1705466416480,470074,375144,4568
1705466416496,470046,375197,4625
1705466416512,470096,375210,4572
1705466416527,470088,375183,4569
1705466416552,470148,375173,4571
1705466416568,470044,375262,4571
1705466416583,470138,375255,4602
1705466416599,470072,375242,4572
1705466416615,470194,375380,4584
1705466416630,470174,375324,4481
1705466416639,470242,375339,4571
1705466416655,470177,375371,4586
1705466416670,470290,375346,4489
1705466416686,470240,375412,4575
1705466416702,470299,375401,4555
1705466416717,470377,375389,4574
1705466416733,470330,375473,4577
1705466416749,470301,375498,4629
1705466416764,470386,375407,4573
1705466416780,470405,375480,4649
1705466416796,470322,375451,4602
1705466416811,470248,375460,4586
1705466416835,470036,375221,4572
1705466416851,469860,375156,4570
1705466416866,469809,375095,4589
1705466416882,469789,375028,4567
1705466416898,469549,375044,4568
1705466416913,469615,374920,4482
1705466416924,469651,374847,4579
1705466416940,469577,374874,4561
1705466416955,469582,374826,4536
1705466416971,469609,374715,4573
1705466416987,469575,374858,4550
1705466417002,469728,374790,4609
1705466417015,469726,374759,4581
1705466417031,469652,374802,4652
1705466417046,469627,374838,4569
1705466417062,469604,374788,4568
1705466417078,469649,374756,4598
1705466417093,469581,374832,4571
1705466417108,469629,374759,4590
1705466417124,469567,374748,4572
1705466417139,469651,374854,4588
1705466417155,469710,374741,4600
1705466417171,469772,374797,4572
1705466417186,469672,374800,4482
1705466417208,469800,374763,4588
1705466417224,469736,374736,4592
1705466417239,469728,374799,4626
1705466417255,469825,374842,4568
1705466417271,469860,374772,4562
1705466417286,469846,374898,4600
1705466417298,469791,374952,4597
1705466417314,469848,374946,4631
1705466417329,469833,374902,4575
1705466417345,469906,375031,4602
1705466417361,469939,375010,4495
1705466417376,469823,375098,4575
1705466417391,469964,375009,4572
1705466417407,470042,375022,4559
1705466417422,470051,375081,4576
1705466417438,470073,375134,4557
1705466417454,470202,375179,4576
1705466417469,470092,375103,4562
1705466417482,470117,375193,4575
1705466417498,470163,375112,4548
1705466417513,470100,375116,4651
1705466417529,469857,375030,4588
1705466417545,469785,374949,4584
1705466417560,469633,374846,4588
1705466417568,469523,374767,4575
1705466417584,469487,374740,4515
1705466417599,469440,374646,4556
1705466417615,469373,374716,4573
1705466417631,469402,374617,4483
1705466417646,469467,374613,4573
1705466417675,469435,374580,4544
1705466417691,469441,374640,4545
1705466417706,469551,374546,4561
1705466417722,469490,374616,4643
1705466417738,469598,374613,4572
1705466417753,469487,374557,4559
1705466417766,469474,374613,4576
1705466417782,469445,374617,4575
1705466417797,469499,374638,4607
1705466417813,469477,374569,4576
1705466417829,469458,374784,4573
1705466417844,469526,374686,4513
1705466417853,469537,374719,4577
1705466417869,469523,374760,4583
1705466417884,469529,374739,4485
1705466417900,469633,374721,4602
1705466417916,469584,374847,4562
1705466417931,469725,374865,4580
1705466417943,469662,374837,4569
1705466417959,469727,374921,4628
1705466417974,469755,374936,4579
1705466417990,469705,374942,4616
1705466418006,469637,375044,4588
1705466418021,469796,375101,4582
1705466418051,469771,375044,4618
1705466418067,469713,375094,4578
1705466418082,469872,375167,4587
1705466418098,469849,375106,4579
1705466418114,469855,375211,4578
1705466418129,469931,375175,4549
1705466418142,470037,375161,4579
1705466418158,469970,375243,4579
1705466418173,470023,375269,4550
1705466418189,470052,375280,4579
1705466418205,470153,375231,4601
1705466418220,470109,375357,4608
1705466418228,470151,375338,4562
1705466418244,470093,375284,4672
1705466418259,469915,375208,4578
1705466418275,469775,375159,4577
1705466418291,469579,374938,4617
1705466418306,469475,374995,4577
1705466418323,469454,374874,4583
1705466418339,469405,374833,4591
1705466418354,469399,374935,4581
1705466418370,469397,374784,4557
1705466418386,469526,374797,4577
1705466418401,469447,374750,4575
1705466418426,469506,374761,4576
1705466418442,469499,374723,4574
1705466418457,469543,374808,4633
1705466418473,469577,374826,4591
1705466418489,469603,374774,4577
1705466418504,469593,374859,4672
1705466418513,469590,374830,4579
1705466418529,469578,374826,4614
1705466418544,469466,374842,4603
1705466418560,469556,374819,4611
1705466418576,469562,374835,4506
1705466418591,469601,374904,4580
1705466418614,469625,374852,4575
1705466418630,469730,374948,4504
1705466418645,469722,374881,4579
1705466418661,469734,374943,4550
1705466418677,469828,374923,4581
1705466418692,469758,374907,4605
1705466418708,469882,375005,4581
1705466418724,469882,374978,4579
1705466418739,469822,375023,4645
1705466418755,469730,375074,4581
1705466418771,469831,375144,4607
1705466418786,469938,375165,4633
1705466418798,469972,375177,4562
1705466418814,470035,375202,4605
1705466418829,469994,375218,4488
1705466418845,470103,375278,4585
1705466418861,470084,375303,4509
1705466418876,470129,375288,4581
1705466418893,470151,375327,4580
1705466418909,470183,375392,4550
1705466418924,470314,375336,4581
1705466418940,470282,375426,4597
1705466418956,470352,375456,4622
1705466418971,470321,375359,4602
1705466418983,470293,375412,4584
1705466418999,470061,375308,4580
1705466419014,469969,375213,4576
1705466419030,469734,375097,4551
1705466419046,469573,375069,4579
1705466419061,469647,374983,4492
1705466419083,469597,374909,4560
1705466419099,469610,374991,4599
1705466419114,469640,374901,4485
1705466419130,469661,374883,4581
1705466419146,469614,374903,4568
1705466419161,469733,374907,4582
1705466419174,469702,374932,4590
1705466419190,469785,374959,4627
1705466419205,469791,374914,4581
1705466419221,469853,374966,4583
1705466419237,469808,374987,4638
1705466419252,469761,375000,4582
1705466419282,469789,374968,4583
1705466419298,469708,374994,4580
1705466419313,469824,375029,4582
1705466419329,469789,375032,4569
1705466419345,469813,375042,4582
1705466419360,469906,374989,4571
1705466419357,469893,375099,4584
1705466419373,469947,375062,4581
1705466419388,469970,375138,4549
1705466419404,469993,375101,4598
1705466419420,469984,375063,4567
1705466419435,470018,375159,4616
1705466419443,470037,375213,4600
1705466419459,470054,375270,4684
1705466419474,470067,375252,4610
1705466419490,470150,375307,4586
1705466419506,470177,375304,4637
1705466419521,470076,375395,4582
1705466419551,470186,375401,4568
1705466419567,470250,375382,4569
1705466419582,470259,375486,4579
1705466419598,470305,375471,4527
1705466419614,470421,375513,4583
1705466419629,470394,375517,4584
1705466419642,470461,375592,4584
1705466419658,470532,375529,4575
1705466419673,470487,375592,4640
1705466419689,470584,375642,4585
1705466419705,470511,375536,4573
1705466419720,470490,375514,4640
1705466419728,470270,375511,4579
1705466419744,470122,375381,4613
1705466419759,469986,375291,4598
1705466419775,469910,375255,4582
1705466419791,469836,375143,4499
1705466419806,469715,375091,4577
1705466419834,469792,375106,4581
1705466419850,469866,375112,4492
1705466419865,469864,375047,4584
1705466419881,469911,375064,4558
1705466419897,470023,375064,4586
1705466419912,469962,374992,4562
1705466419925,469980,375101,4588
1705466419941,470073,375101,4583
1705466419956,470093,375050,4635
1705466419972,469999,375155,4587
1705466419988,470027,375204,4586
1705466420003,470059,375173,4601
1705466420015,470013,375150,4584
1705466420031,470048,375216,4592
1705466420046,470096,375137,4496
1705466420062,470110,375197,4594
1705466420078,470130,375204,4540
1705466420093,470246,375200,4591
1705466420103,470129,375219,4582
1705466420119,470213,375240,4560
1705466420134,470254,375266,4579
1705466420150,470194,375271,4598
1705466420166,470301,375342,4613
1705466420181,470283,375321,4585
1705466420199,470318,375382,4602
1705466420215,470281,375420,4582
1705466420230,470367,375484,4599
1705466420246,470413,375428,4584
1705466420262,470324,375561,4583
1705466420277,470391,375609,4614
1705466420301,470456,375509,4552
1705466420317,470467,375666,4593
1705466420332,470535,375630,4497
1705466420348,470567,375631,4589
1705466420364,470588,375724,4584
1705466420379,470669,375679,4559
1705466420390,470678,375664,4583
1705466420406,470668,375769,4625
1705466420421,470783,375811,4585
1705466420437,470741,375759,4586
1705466420453,470714,375704,4677
1705466420468,470397,375603,4584
1705466420484,470302,375535,4563
1705466420500,470144,375363,4607
1705466420515,470114,375389,4594
1705466420531,470016,375263,4570
1705466420547,469986,375241,4584
1705466420562,470088,375225,4601
1705466420572,470113,375205,4586
1705466420588,470077,375226,4584
1705466420603,470042,375190,4556
1705466420619,470116,375240,4583
1705466420635,470098,375125,4607
1705466420650,470193,375220,4636
1705466420673,470197,375186,4593
1705466420689,470190,375285,4650
1705466420704,470138,375250,4613
1705466420720,470237,375263,4598
1705466420736,470160,375267,4624
1705466420751,470165,375290,4586
1705466420768,470330,375286,4576
1705466420784,470266,375232,4502
1705466420799,470242,375367,4583
1705466420815,470275,375248,4520
1705466420831,470373,375330,4585
1705466420846,470335,375359,4582
1705466420857,470381,375351,4588
1705466420873,470460,375330,4586
1705466420888,470374,375393,4568
1705466420904,470432,375393,4604
1705466420920,470504,375400,4585
1705466420935,470482,375417,4677
1705466420945,470473,375524,4575
1705466420961,470530,375514,4585
1705466420976,470568,375549,4610
1705466420992,470636,375657,4613
1705466421008,470594,375606,4489
1705466421023,470596,375642,4588
1705466421052,470707,375640,4586
1705466421068,470707,375718,4551
1705466421083,470802,375652,4586
1705466421099,470734,375748,4520
1705466421115,470907,375743,4585
1705466421130,470860,375725,4609
1705466421142,470930,375834,4617
1705466421158,470975,375843,4587
1705466421173,470892,375763,4574
1705466421189,470977,375766,4590
1705466421205,470662,375744,4586
1705466421220,470551,375565,4645
1705466421232,470410,375522,4586
1705466421248,470343,375480,4608
1705466421263,470331,375378,4503
1705466421279,470258,375331,4587
1705466421295,470296,375310,4543
1705466421310,470204,375321,4585
1705466421320,470284,375265,4585
1705466421336,470346,375323,4559
1705466421351,470385,375327,4587
1705466421367,470423,375294,4575
1705466421383,470411,375314,4633
1705466421398,470465,375319,4586
1705466421426,470425,375371,4610
1705466421442,470393,375351,4584
1705466421457,470515,375397,4596
1705466421473,470528,375388,4632
1705466421489,470419,375380,4587
1705466421504,470505,375397,4530
1705466421518,470498,375407,4587
1705466421534,470518,375414,4561
1705466421549,470507,375402,4491
1705466421565,470606,375493,4564
1705466421581,470509,375491,4587
1705466421596,470535,375512,4582
1705466421604,470641,375471,4585
1705466421620,470676,375529,4653
1705466421635,470788,375561,4587
1705466421651,470685,375537,4553
1705466421667,470728,375574,4665
1705466421682,470699,375624,4588
1705466421696,470729,375654,4564
1705466421712,470702,375701,4603
1705466421727,470800,375766,4587
1705466421743,470849,375711,4521
1705466421759,470853,375675,4584
1705466421774,470876,375834,4595
1705466421799,470972,375776,4587
1705466421815,471016,375786,4590
1705466421830,471015,375820,4549
1705466421846,471116,375858,4587
1705466421862,471034,375831,4568
1705466421877,471107,375937,4611
1705466421888,471084,375933,4567
1705466421904,471156,375939,4617
1705466421919,471069,375905,4618
1705466421935,470978,375864,4553
1705466421951,470891,375745,4642
1705466421966,470626,375626,4587
1705466421982,470643,375603,4589
1705466421998,470591,375575,4497
1705466422013,470492,375534,4585
1705466422029,470528,375495,4519
1705466422045,470662,375472,4595
1705466422060,470605,375465,4587
1705466422073,470628,375528,4587
1705466422089,470802,375480,4586
1705466422104,470723,375531,4634
1705466422120,470750,375515,4589
1705466422136,470828,375514,4583
1705466422151,470757,375558,4640
1705466422177,470784,375546,4588
1705466422193,470810,375599,4602
1705466422208,470862,375605,4644
1705466422224,470821,375634,4585
1705466422240,470825,375607,4548
1705466422255,470774,375567,4603
1705466422265,470849,375571,4582
1705466422281,470885,375607,4500
1705466422296,470946,375556,4587
1705466422312,470862,375627,4597
1705466422328,470912,375608,4561
1705466422343,470952,375583,4584
1705466422359,471030,375703,4609
1705466422375,471089,375725,4585
1705466422390,470997,375717,4607
1705466422406,471010,375741,4589
1705466422422,470988,375836,4587
1705466422437,471018,375808,4617
1705466422447,471041,375847,4591
1705466422463,471134,375948,4600
1705466422478,471111,375868,4498
1705466422494,471187,375944,4589
1705466422510,471253,376008,4602
1705466422525,471242,375990,4507
1705466422549,471320,376036,4567
1705466422565,471320,375993,4561
1705466422580,471451,376053,4590
1705466422596,471361,376065,4611
1705466422612,471403,376120,4656
1705466422627,471446,376104,4590
1705466422645,471474,376104,4617
1705466422661,471377,376126,4592
1705466422676,471301,376060,4603
1705466422692,471168,375908,4626
1705466422708,471030,375916,4589
1705466422723,470988,375882,4616
1705466422732,470936,375769,4592
1705466422748,470857,375824,4588
1705466422763,470981,375739,4497
1705466422779,470987,375708,4582
1705466422795,471043,375738,4589
1705466422810,471077,375799,4558
1705466422820,471123,375782,4572
1705466422836,471127,375861,4595
1705466422851,471225,375852,4631
1705466422867,471147,375783,4604
1705466422883,471259,375866,4683
1705466422898,471133,375898,4605
1705466422928,471190,375863,4587
1705466422944,471218,375867,4612
1705466422959,471084,375962,4591
1705466422975,471273,375959,4552
1705466422991,471158,375915,4588
1705466423006,471270,375985,4608
1705466423018,471280,375928,4575
1705466423034,471400,375939,4590
1705466423049,471348,375965,4502
1705466423065,471337,375968,4590
1705466423081,471332,375971,4615
1705466423096,471373,376024,4642
1705466423104,471407,375976,4589
1705466423120,471406,375960,4590
1705466423135,471410,376052,4645
1705466423151,471432,376094,4621
1705466423167,471504,376118,4649
1705466423182,471437,376195,4591
1705466423198,471552,376212,4594
1705466423214,471554,376229,4525
1705466423229,471545,376297,4590
1705466423245,471598,376242,4561
1705466423261,471710,376267,4574
1705466423276,471736,376304,4591
1705466423301,471702,376320,4579
1705466423317,471860,376372,4590
1705466423332,471833,376279,4575
1705466423348,471890,376400,4586
1705466423364,471881,376357,4590
1705466423379,471842,376377,4693
1705466423392,471812,376357,4593
1705466423408,471689,376346,4601
1705466423423,471606,376250,4645
1705466423439,471488,376250,4590
1705466423455,471446,376150,4521
1705466423470,471332,376071,4567
1705466423479,471376,376150,4603
1705466423495,471417,376116,4498
1705466423510,471528,376080,4587
1705466423526,471481,376110,4591
1705466423542,471613,376112,4572
1705466423557,471626,376077,4588
1705466423572,471540,376204,4570
1705466423588,471627,376197,4591
1705466423603,471551,376137,4577
1705466423619,471582,376180,4604
1705466423635,471589,376217,4590
1705466423650,471630,376263,4608
1705466423675,471581,376215,4593
1705466423691,471649,376281,4589
1705466423706,471692,376228,4507
1705466423722,471575,376261,4550
1705466423738,471682,376330,4588
1705466423753,471690,376300,4492
1705466423763,471721,376271,4592
1705466423779,471721,376364,4573
1705466423794,471828,376318,4592
1705466423810,471736,376375,4592
1705466423826,471805,376347,4644
1705466423841,471879,376403,4590
1705466423857,471828,376465,4610
1705466423873,471823,376433,4617
1705466423888,471916,376485,4592
1705466423904,471908,376502,4625
1705466423920,471824,376540,4589
1705466423935,471964,376648,4589
1705466423949,471947,376580,4588
1705466423965,472009,376636,4535
1705466423980,472016,376663,4523
1705466423996,472211,376638,4607
1705466424012,472142,376708,4589
1705466424027,472175,376772,4568
1705466424049,472187,376720,4594
1705466424065,472210,376684,4634
1705466424080,472267,376793,4620
1705466424096,472269,376753,4574
1705466424112,472182,376740,4682
1705466424127,472015,376611,4588
1705466424143,471911,376589,4590
1705466424159,471847,376518,4638
1705466424174,471691,376595,4588
1705466424190,471801,376494,4518
1705466424206,471753,376428,4572
1705466424221,471815,376529,4593
1705466424234,471885,376452,4588
1705466424250,471938,376495,4590
1705466424265,471920,376504,4601
1705466424281,471950,376511,4587
1705466424297,472006,376455,4584
1705466424312,471957,376566,4622
1705466424335,471983,376565,4583
1705466424351,471986,376482,4605
1705466424366,472002,376587,4682
1705466424382,471948,376595,4591
1705466424398,472030,376568,4633
1705466424413,471963,376566,4608
1705466424424,472011,376562,4588
1705466424440,472029,376596,4507
1705466424455,471984,376636,4589
1705466424471,472055,376657,4583
1705466424487,472151,376673,4515
1705466424502,472111,376669,4587
1705466424519,472136,376659,4534
1705466424535,472204,376684,4586
1705466424550,472166,376678,4587
1705466424566,472207,376782,4608
1705466424582,472345,376714,4588
1705466424597,472217,376817,4649
1705466424604,472345,376776,4591
1705466424620,472303,376908,4604
1705466424635,472319,376841,4622
1705466424651,472343,376908,4586
1705466424667,472396,376972,4610
1705466424682,472404,376969,4500
1705466424694,472422,376979,4591
1705466424710,472484,377008,4482
1705466424725,472558,377005,4587
1705466424741,472514,377024,4585
1705466424757,472539,377012,4561
1705466424772,472691,377042,4572
1705466424800,472582,377095,4578
1705466424816,472615,377034,4629
1705466424831,472455,376972,4603
1705466424847,472330,376890,4612
1705466424863,472175,376873,4587
1705466424878,472175,376823,4579
1705466424892,472117,376785,4547
1705466424908,472046,376857,4584
1705466424923,472125,376740,4499
1705466424939,472170,376790,4566
1705466424955,472208,376868,4604
1705466424970,472300,376813,4496
1705466424979,472250,376734,4588
1705466424995,472284,376800,4501
1705466425010,472358,376804,4582
1705466425026,472324,376745,4585
1705466425042,472302,376842,4629
1705466425057,472318,376917,4588
1705466425072,472326,376839,4563
1705466425088,472300,376844,4640
1705466425103,472280,376909,4586
1705466425119,472320,376857,4643
1705466425135,472281,376900,4584
1705466425150,472396,376971,4619
1705466425176,472392,376940,4607
1705466425192,472339,376958,4584
1705466425207,472395,376902,4481
1705466425223,472429,376946,4592
1705466425239,472416,376959,4587
1705466425254,472430,376952,4559
1705466425264,472463,376955,4583
1705466425280,472478,376912,4574
1705466425295,472543,377043,4632
1705466425311,472547,376975,4587
1705466425327,472546,377052,4688
1705466425342,472550,377073,4587
1705466425358,472609,377064,4576
1705466425374,472616,377079,4628
1705466425389,472569,377142,4586
1705466425405,472696,377159,4521
1705466425421,472662,377212,4572
1705466425436,472727,377292,4580
1705466425447,472831,377262,4599
1705466425463,472830,377249,4585
1705466425478,472797,377263,4586
1705466425494,472842,377222,4587
1705466425510,472794,377112,4586
1705466425525,472603,377173,4651
1705466425550,472523,377019,4564
1705466425566,472443,376930,4582
1705466425581,472305,377012,4672
1705466425597,472283,376908,4589
1705466425613,472260,376875,4616
1705466425628,472212,376911,4612
1705466425640,472303,376879,4602
1705466425656,472304,376905,4495
1705466425671,472280,376835,4583
1705466425687,472370,376930,4588
1705466425703,472409,376905,4549
1705466425718,472421,376878,4583
1705466425732,472361,376876,4592
1705466425748,472449,376913,4588
1705466425763,472358,376817,4563
1705466425779,472418,376908,4606
1705466425795,472473,376879,4584
1705466425810,472435,376857,4636
1705466425824,472289,376918,4584
1705466425840,472444,376962,4583
1705466425855,472437,376910,4638
1705466425871,472433,376908,4598
1705466425887,472415,376946,4609
1705466425902,472457,376978,4491
1705466425908,472429,376966,4582
1705466425924,472431,376986,4527
1705466425939,472558,377017,4590
1705466425955,472504,377016,4576
1705466425971,472534,376969,4557
1705466425986,472628,377057,4583
1705466426016,472554,377082,4583
1705466426032,472625,377061,4630
1705466426047,472594,377104,4579
1705466426063,472656,377110,4642
1705466426079,472700,377129,4583
1705466426094,472679,377206,4598
1705466426119,472738,377212,4585
1705466426135,472696,377306,4582
1705466426150,472753,377257,4517
1705466426166,472737,377210,4583
1705466426182,472751,377330,4591
1705466426197,472796,377226,4492
1705466426194,472671,377152,4564
1705466426210,472504,377041,4581
1705466426225,472358,376952,4561
1705466426241,472210,376818,4559
1705466426257,472213,376769,4621
1705466426272,472185,376774,4580
1705466426301,472010,376683,4601
1705466426317,472090,376716,4609
1705466426332,472045,376708,4580
1705466426348,472076,376644,4631
1705466426364,472020,376695,4609
1705466426379,472057,376737,4580
1705466426389,472092,376649,4602
1705466426405,472085,376757,4582
1705466426420,472189,376698,4597
1705466426436,472169,376620,4580
1705466426452,472207,376690,4561
1705466426467,472105,376631,4555
1705466426479,472077,376619,4592
1705466426495,472075,376518,4606
1705466426510,472130,376626,4623
1705466426526,472158,376570,4587
1705466426542,472124,376643,4645
1705466426557,472048,376689,4611
1705466426568,472191,376683,4602
1705466426584,472204,376652,4619
1705466426599,472067,376692,4581
1705466426615,472208,376747,4575
1705466426631,472203,376705,4504
1705466426646,472136,376754,4580
1705466426676,472247,376705,4574
1705466426692,472281,376729,4583
1705466426707,472230,376715,4525
1705466426723,472277,376740,4557
1705466426739,472309,376705,4579
1705466426754,472308,376767,4566
1705466426767,472269,376782,4562
1705466426783,472286,376758,4598
1705466426798,472340,376867,4674
1705466426814,472308,376814,4568
1705466426830,472306,376796,4576
1705466426845,472154,376684,4602
1705466426855,472018,376617,4580
1705466426871,471851,376544,4491
1705466426886,471659,376454,4575
1705466426902,471709,376355,4595
1705466426918,471663,376308,4489
1705466426933,471630,376238,4569
1705466426948,471590,376223,4565
1705466426964,471641,376233,4576
1705466426979,471615,376151,4579
1705466426995,471602,376251,4620
1705466427011,471649,376216,4580
1705466427026,471684,376221,4567
1705466427051,471684,376270,4612
1705466427067,471613,376259,4577
1705466427082,471634,376198,4616
1705466427098,471535,376180,4578
1705466427114,471607,376211,4603
1705466427129,471603,376125,4491
1705466427140,471576,376139,4629
1705466427156,471594,376146,4477
1705466427171,471608,376110,4563
1705466427187,471693,376151,4588
1705466427203,471621,376176,4552
1705466427218,471687,376138,4582
1705466427243,471702,376151,4590
1705466427259,471712,376176,4623
1705466427274,471790,376142,4579
1705466427290,471725,376230,4683
1705466427306,471653,376227,4579
1705466427321,471750,376249,4578
1705466427324,471771,376248,4579
1705466427340,471716,376260,4581
1705466427355,471777,376233,4535
1705466427371,471775,376249,4579
1705466427387,471813,376331,4573
1705466427402,471814,376319,4492
1705466427410,471842,376282,4587
1705466427426,471856,376301,4558
1705466427441,471906,376341,4550
1705466427457,471873,376216,4583
1705466427473,471927,376394,4648
1705466427488,472047,376419,4583
1705466427514,471985,376485,4580
1705466427530,472036,376435,4674
1705466427545,471944,376387,4580
1705466427561,471823,376326,4586
1705466427577,471523,376161,4582
1705466427592,471376,376134,4580
1705466427608,471281,375928,4598
1705466427624,471247,375892,4576
1705466427639,471181,375874,4586
1705466427655,471205,375779,4576
1705466427671,471127,375725,4577
1705466427686,471112,375673,4573
1705466427700,471114,375651,4550
1705466427716,471083,375512,4557
1705466427731,471126,375613,4631
1705466427747,471204,375594,4597
1705466427763,471176,375524,4614
1705466427778,471071,375607,4606
1705466427785,471178,375571,4579
1705466427801,471154,375555,4635
1705466427816,471069,375551,4577
1705466427832,471037,375579,4579
1705466427848,471107,375490,4490
1705466427863,471077,375583,4578
1705466427892,471155,375532,4579
1705466427908,471206,375515,4588
1705466427923,471140,375472,4577
1705466427939,471249,375550,4549
1705466427955,471290,375506,4583
1705466427970,471249,375440,4624
1705466427993,471267,375565,4584
1705466428009,471285,375486,4576
1705466428024,471292,375555,4674
1705466428040,471280,375571,4581
1705466428056,471293,375653,4580
1705466428071,471265,375620,4656
1705466428085,471221,375649,4534
1705466428101,471255,375697,4537
1705466428116,471280,375681,4596
1705466428132,471387,375698,4575
1705466428148,471356,375713,4497
1705466428163,471429,375679,4583
1705466428176,471475,375740,4583
1705466428192,471411,375673,4581
1705466428207,471306,375612,4576
1705466428223,471102,375531,4597
1705466428239,470996,375434,4580
1705466428254,470870,375270,4596
1705466428267,470821,375259,4583
1705466428283,470752,375275,4577
1705466428298,470798,375200,4621
1705466428314,470636,375194,4582
1705466428330,470726,375257,4588
1705466428345,470711,375092,4493
1705466428355,470705,375149,4560
1705466428371,470715,375143,4585
1705466428386,470815,375117,4497
1705466428402,470791,375157,4584
1705466428418,470839,375135,4558
1705466428433,470847,375106,4583
1705466428447,470758,375156,4558
1705466428463,470755,375111,4612
1705466428478,470801,375023,4580
1705466428494,470727,375118,4660
1705466428510,470761,375085,4610
1705466428525,470851,375115,4597
1705466428552,470771,375138,4570
1705466428568,470744,375126,4583
1705466428583,470898,375183,4569
1705466428599,470860,375149,4589
1705466428615,470805,375217,4538
1705466428630,470925,375190,4491
1705466428654,470900,375175,4556
1705466428670,470937,375226,4585
1705466428685,470924,375247,4582
1705466428701,471021,375260,4563
1705466428717,471020,375306,4572
1705466428732,471048,375309,4627
1705466428730,471022,375294,4593
1705466428746,471009,375332,4611
1705466428761,471031,375386,4585
1705466428777,471046,375326,4583
1705466428793,471122,375440,4610
1705466428808,471121,375450,4590
1705466428822,471154,375442,4573
1705466428838,471105,375478,4584
1705466428853,471178,375528,4575
1705466428869,471217,375527,4592
1705466428885,471345,375519,4586
1705466428900,471228,375563,4568
1705466428926,471193,375455,4568
1705466428942,470929,375283,4609
1705466428957,470781,375242,4638
1705466428973,470693,375158,4587
1705466428989,470547,375021,4571
1705466429004,470566,374984,4611
1705466429015,470524,375008,4584
1705466429031,470478,374933,4604
1705466429046,470406,374834,4581
1705466429062,470468,374831,4613
1705466429078,470450,374841,4497
1705466429093,470363,374886,4583
1705466429108,470498,374911,4536
1705466429124,470499,374874,4567
1705466429139,470541,374802,4585
1705466429155,470478,374827,4564
1705466429171,470542,374831,4585
1705466429186,470503,374797,4558
1705466429198,470483,374873,4587
1705466429214,470502,374753,4588
1705466429229,470495,374813,4675
1705466429245,470407,374811,4585
1705466429261,470525,374855,4582
1705466429276,470537,374816,4643
1705466429286,470543,374925,4613
1705466429302,470626,374882,4543
1705466429317,470561,374893,4575
1705466429333,470640,374938,4583
1705466429349,470604,374879,4500
1705466429364,470734,374974,4587
1705466429393,470656,374970,4587
1705466429409,470660,374982,4561
1705466429424,470772,374945,4575
1705466429440,470726,375057,4662
1705466429456,470785,375077,4591
1705466429471,470748,375010,4578
1705466429482,470779,375103,4592
1705466429498,470758,375098,4590
1705466429513,470807,375186,4620
1705466429529,470801,375276,4589
1705466429545,470828,375244,4617
1705466429560,470922,375208,4525
1705466429570,470929,375245,4598
1705466429586,470998,375416,4598
1705466429601,470982,375315,4486
1705466429617,470874,375191,4592
1705466429633,470696,375164,4579
1705466429648,470581,374947,4590
1705466429659,470438,374912,4561
1705466429675,470373,374799,4620
1705466429690,470384,374791,4588
1705466429706,470275,374742,4626
1705466429722,470182,374723,4613
1705466429737,470324,374790,4592
1705466429768,470296,374736,4555
1705466429784,470154,374697,4590
1705466429799,470277,374810,4600
1705466429815,470390,374752,4591
1705466429831,470244,374813,4589
1705466429846,470436,374803,4543
1705466429857,470508,374764,4591
1705466429873,470368,374746,4589
1705466429888,470430,374804,4568
1705466429904,470342,374766,4591
1705466429920,470469,374710,4640
1705466429935,470468,374769,4625
1705466429945,470423,374808,4593
1705466429961,470507,374799,4688
1705466429976,470424,374850,4595
1705466429992,470548,374839,4596
1705466430008,470528,374835,4647
1705466430023,470522,374982,4592
1705466430051,470543,374880,4530
1705466430067,470599,374992,4595
1705466430082,470651,375046,4602
1705466430098,470687,374981,4583
1705466430114,470682,375032,4590
1705466430129,470664,375085,4593
1705466430144,470813,374984,4597
1705466430160,470772,375016,4591
1705466430175,470816,375115,4647
1705466430191,470933,375086,4581
1705466430207,470829,375118,4614
1705466430222,470877,375177,4683
1705466430228,470854,375241,4592
1705466430244,470859,375241,4630
1705466430259,470885,375266,4619
1705466430275,470926,375309,4584
1705466430291,470970,375295,4497
1705466430306,470803,375229,4595
1705466430330,470648,375082,4601
1705466430346,470504,374976,4528
1705466430361,470458,374905,4597
1705466430377,470348,374866,4540
1705466430393,470435,374837,4594
1705466430408,470345,374730,4620
1705466430426,470344,374779,4603
1705466430442,470360,374690,4596
1705466430457,470313,374772,4659
1705466430473,470330,374777,4598
1705466430489,470425,374788,4596
1705466430504,470512,374781,4651
1705466430513,470476,374854,4596
1705466430529,470536,374857,4619
1705466430544,470552,374826,4520
1705466430560,470559,374850,4599
1705466430576,470497,374807,4509
1705466430591,470579,374857,4598
1705466430607,470577,374814,4589
1705466430623,470552,374812,4565
1705466430638,470626,374814,4599
1705466430654,470629,374856,4615
1705466430670,470664,374919,4641
1705466430685,470663,374866,4619
1705466430697,470743,374912,4600
1705466430713,470712,374991,4600
1705466430728,470710,375054,4598
1705466430744,470694,375049,4602
1705466430760,470731,375166,4601
1705466430775,470848,375051,4512
1705466430801,470850,375097,4601
1705466430817,470879,375193,4619
1705466430832,470953,375215,4513
1705466430848,470900,375179,4612
1705466430864,470980,375256,4582
1705466430879,471061,375302,4602
1705466430889,471041,375319,4565
1705466430905,471097,375357,4619
1705466430920,471207,375375,4598
1705466430936,471129,375376,4597
1705466430952,471156,375475,4658
1705466430967,471188,375468,4638
1705466430982,471279,375496,4598
1705466430998,471133,375498,4604
1705466431013,471291,375542,4630
1705466431029,471128,375405,4615
1705466431045,470870,375286,4601
1705466431060,470798,375199,4559
1705466431085,470707,375026,4602
1705466431101,470666,375025,4582
1705466431116,470636,374974,4571
1705466431132,470552,374956,4598
1705466431148,470598,374921,4588
1705466431163,470609,374900,4635
1705466431161,470635,374935,4629
1705466431177,470615,374919,4664
1705466431192,470586,374891,4602
1705466431208,470707,374957,4601
1705466431224,470791,374953,4660
1705466431239,470606,375029,4602
1705466431269,470795,374956,4574
1705466431285,470775,374967,4591
1705466431300,470743,374989,4602
1705466431316,470795,374985,4585
1705466431332,470890,374907,4605
1705466431347,470801,374958,4568
1705466431357,470847,375009,4604
1705466431373,470922,374967,4606
1705466431388,470891,375085,4638
1705466431404,470948,375009,4605
1705466431420,470969,375003,4593
1705466431435,470880,375103,4695
1705466431444,470912,375135,4619
1705466431460,471003,375238,4618
1705466431475,470981,375177,4624
1705466431491,471014,375301,4622
1705466431507,471051,375288,4516
1705466431522,471060,375298,4604
1705466431550,471121,375329,4605
1705466431566,471161,375348,4516
1705466431581,471217,375345,4606
1705466431597,471216,375389,4613
1705466431613,471274,375397,4609
1705466431628,471271,375402,4585
1705466431642,471313,375492,4606
1705466431658,471437,375534,4610
1705466431673,471361,375480,4660
1705466431689,471355,375581,4638
1705466431705,471470,375615,4611
1705466431720,471502,375555,4641
1705466431729,471390,375560,4607
1705466431745,471224,375498,4617
1705466431760,471067,375399,4591
1705466431776,470923,375325,4630
1705466431792,470862,375152,4554
1705466431807,470882,375117,4593
1705466431818,470699,375075,4605
1705466431834,470769,375028,4573
1705466431849,470872,375044,4607
1705466431865,470789,374947,4645
1705466431881,470841,375011,4636
1705466431896,470821,375001,4606
1705466431925,470866,375010,4623
1705466431941,470836,375039,4608
1705466431956,470939,375117,4619
1705466431972,470951,375060,4610
1705466431988,470912,375148,4606
1705466432003,470960,375070,4568
1705466432018,470929,375039,4620
1705466432034,470933,375115,4614
1705466432049,471058,375044,4537
1705466432065,471040,375051,4608
1705466432081,471038,375115,4604
1705466432096,471087,375073,4586
1705466432104,471031,375117,4605
1705466432120,471100,375171,4660
1705466432135,471225,375130,4609
1705466432151,471191,375242,4583
1705466432167,471186,375254,4702
1705466432182,471095,375283,4608
1705466432211,471179,375301,4624
1705466432227,471192,375330,4609
1705466432242,471258,375371,4617
1705466432258,471290,375374,4593
1705466432274,471225,375425,4610
1705466432289,471347,375449,4626
1705466432285,471426,375464,4633
1705466432301,471487,375469,4613
1705466432316,471444,375511,4619
1705466432332,471528,375582,4624
1705466432348,471510,375473,4633
1705466432363,471537,375610,4663
1705466432389,471581,375590,4610
1705466432405,471642,375658,4683
1705466432420,471582,375652,4641
1705466432436,471657,375665,4601
1705466432452,471579,375580,4664
1705466432467,471300,375522,4612
1705466432494,471239,375372,4616
1705466432510,471074,375340,4523
1705466432525,470990,375289,4608
1705466432541,470971,375220,4572
1705466432557,471055,375215,4610
1705466432572,470995,375127,4607
1705466432574,470986,375141,4609
1705466432590,471147,375026,4608
1705466432605,471065,375143,4589
1705466432621,471068,375107,4609
1705466432637,471145,375101,4627
1705466432652,471155,375188,4701
1705466432661,471205,375200,4628
1705466432677,471204,375203,4609
1705466432692,471244,375179,4636
1705466432708,471204,375217,4630
1705466432724,471294,375169,4534
1705466432739,471162,375240,4611
1705466432766,471255,375135,4610
1705466432782,471190,375216,4544
1705466432797,471378,375248,4611
1705466432813,471290,375243,4548
1705466432829,471382,375304,4610
1705466432844,471349,375164,4633
1705466432858,471390,375278,4611
1705466432874,471433,375322,4611
1705466432889,471429,375262,4608
1705466432905,471411,375365,4611
1705466432921,471467,375509,4612
1705466432936,471421,375441,4672
1705466432947,471417,375456,4631
1705466432963,471549,375553,4654
1705466432978,471552,375487,4522
1705466432994,471583,375586,4612
1705466433010,471525,375568,4574
1705466433025,471619,375603,4594
1705466433037,471692,375619,4600
1705466433053,471702,375650,4584
1705466433068,471844,375647,4614
1705466433084,471756,375685,4620
1705466433100,471789,375770,4658
1705466433115,471868,375649,4613
1705466433142,471841,375827,4655
1705466433158,471781,375698,4615
1705466433173,471806,375767,4610
1705466433189,471712,375701,4624
1705466433205,471413,375619,4610
1705466433220,471402,375508,4534
1705466433233,471289,375389,4610
1705466433249,471336,375479,4604
1705466433264,471293,375340,4524
1705466433280,471365,375274,4611
1705466433296,471349,375282,4609
1705466433311,471338,375321,4581
1705466433320,471379,375275,4600
1705466433336,471466,375320,4631
1705466433351,471514,375365,4615
1705466433367,471512,375359,4592
1705466433383,471504,375408,4671
1705466433398,471466,375375,4614
1705466433424,471501,375366,4630
1705466433440,471560,375366,4627
1705466433455,471517,375485,4612
1705466433471,471560,375321,4598
1705466433487,471553,375411,4612
1705466433502,471571,375513,4611
1705466433517,471506,375436,4644
1705466433533,471648,375483,4615
1705466433548,471597,375509,4598
1705466433564,471711,375490,4607
1705466433580,471671,375481,4592
1705466433595,471693,375555,4667
1705466433603,471746,375586,4643
1705466433619,471727,375523,4668
1705466433634,471672,375610,4643
1705466433650,471830,375637,4590
1705466433666,471805,375630,4668
1705466433681,471847,375700,4612
1705466433697,471887,375681,4617
1705466433713,471880,375728,4528
1705466433728,471807,375833,4614
1705466433744,471890,375816,4545
1705466433760,472004,375796,4621
1705466433775,472000,375839,4614
1705466433799,471929,375866,4617
1705466433815,472104,375864,4613
1705466433830,472069,375878,4658
1705466433846,472136,375977,4623
1705466433862,472158,375904,4611
1705466433877,472135,375962,4694
1705466433893,472173,375906,4592
1705466433909,472037,375892,4623
1705466433924,471972,375766,4647
1705466433940,471812,375797,4626
1705466433956,471743,375698,4574
1705466433971,471668,375598,4626
1705466433980,471736,375595,4624
1705466433996,471672,375599,4523
1705466434011,471737,375549,4608
1705466434027,471737,375559,4608
1705466434043,471804,375582,4588
1705466434058,471829,375538,4613
1705466434072,471870,375634,4633
1705466434088,471895,375699,4612
1705466434103,471886,375578,4631
1705466434119,471900,375678,4636
1705466434135,471846,375679,4614
1705466434150,471866,375703,4657
1705466434161,471824,375676,4611
1705466434177,471871,375798,4625
1705466434192,471901,375645,4598
1705466434208,471843,375703,4619
1705466434224,471960,375747,4626
1705466434239,471931,375724,4530
1705466434264,471976,375747,4612
1705466434280,471947,375776,4585
1705466434295,472079,375798,4614
1705466434311,472080,375806,4596
1705466434327,472039,375786,4668
1705466434342,472095,375760,4613
1705466434357,472130,375795,4641
1705466434373,472051,375890,4621
1705466434388,472126,375935,4655
1705466434404,472169,375940,4633
1705466434420,472128,375964,4614
1705466434435,472243,375979,4634
1705466434447,472249,376003,4614
1705466434463,472193,376076,4614
1705466434478,472314,376083,4602
1705466434494,472392,376073,4615
1705466434510,472391,376101,4615
1705466434525,472371,376157,4585
1705466434534,472460,376215,4582
1705466434550,472427,376191,4596
1705466434565,472545,376186,4656
1705466434581,472536,376186,4612
1705466434597,472539,376212,4706
1705466434612,472397,376199,4614
1705466434656,472349,376033,4611
1705466434672,472268,376009,4634
1705466434687,472065,376029,4612
1705466434703,472074,375951,4547
1705466434719,472084,375927,4614
1705466434734,472147,375917,4631
1705466434733,472175,375949,4591
1705466434749,472229,375831,4608
1705466434764,472230,375983,4537
1705466434780,472390,375987,4614
1705466434796,472247,375888,4635
1705466434811,472299,376053,4665
1705466434818,472328,376008,4607
1705466434834,472275,375925,4601
1705466434849,472317,376022,4668
1705466434865,472350,376062,4612
1705466434881,472324,376074,4673
1705466434896,472275,376055,4613
1705466434924,472384,376079,4587
1705466434940,472319,376114,4517
1705466434955,472321,376093,4613
1705466434971,472344,376091,4578
1705466434987,472412,376182,4596
1705466435002,472448,376138,4611
1705466435017,472458,376142,4627
1705466435033,472552,376183,4613
1705466435048,472467,376045,4588
1705466435064,472436,376268,4613
1705466435080,472598,376182,4611
1705466435095,472553,376237,4713
1705466435108,472635,376257,4632
1705466435124,472667,376342,4615
1705466435139,472639,376330,4665
1705466435155,472698,376429,4613
1705466435171,472691,376414,4565
1705466435186,472749,376440,4599
1705466435195,472764,376464,4608
1705466435211,472826,376511,4518
1705466435226,472941,376503,4610
1705466435242,472821,376567,4614
1705466435258,472945,376569,4577
1705466435273,473004,376469,4612
1705466435299,472965,376562,4641
1705466435315,473036,376607,4612
1705466435330,472992,376571,4603
1705466435346,472918,376612,4609
1705466435362,472809,376538,4612
1705466435377,472731,376413,4643
1705466435393,472577,376348,4641
1705466435409,472540,376433,4611
1705466435424,472536,376347,4524
1705466435440,472451,376329,4609
1705466435456,472554,376359,4567
1705466435471,472596,376313,4519
1705466435480,472615,376365,4595
1705466435496,472650,376411,4606
1705466435511,472775,376380,4628
1705466435527,472743,376426,4588
1705466435543,472747,376419,4663
1705466435558,472773,376393,4592
1705466435576,472716,376458,4623
1705466435592,472706,376421,4636
1705466435607,472781,376491,4616
1705466435623,472766,376379,4625
1705466435639,472739,376416,4609
1705466435654,472782,376545,4620
1705466435674,472867,376482,4609
1705466435690,472750,376572,4612
1705466435705,472852,376498,4558
1705466435721,472964,376536,4619
1705466435737,472915,376520,4608
1705466435752,472966,376574,4575
1705466435765,472914,376537,4614
1705466435781,472953,376532,4653
1705466435796,473010,376638,4617
1705466435812,472990,376610,4611
1705466435828,473008,376638,4704
1705466435843,472994,376699,4609
1705466435858,473075,376692,4616
1705466435874,473120,376738,4668
1705466435889,473035,376842,4608
1705466435905,473180,376819,4531
1705466435921,473050,376804,4626
1705466435936,473198,376869,4611
1705466435948,473235,376859,4614
1705466435964,473297,376882,4609
1705466435979,473300,376888,4610
1705466435995,473393,376921,4612
1705466436011,473342,376947,4607
1705466436026,473309,376904,4663
1705466436050,473354,376964,4622
1705466436066,473202,376822,4628
1705466436081,473179,376863,4673
1705466436097,472981,376749,4609
1705466436113,472995,376724,4632
1705466436128,472825,376644,4628
1705466436140,472907,376685,4646
1705466436156,472916,376662,4519
1705466436171,472859,376642,4608
1705466436187,473016,376664,4603
1705466436203,473047,376660,4532
1705466436218,473096,376671,4608
1705466436234,473023,376630,4569
1705466436250,473168,376694,4632
1705466436265,473069,376635,4630
1705466436281,473103,376723,4612
1705466436297,473147,376716,4604
1705466436312,473089,376802,4659
1705466436334,473092,376761,4607
1705466436350,473138,376791,4624
1705466436365,473115,376760,4641
1705466436381,473147,376786,4609
1705466436397,473122,376814,4630
1705466436412,473215,376751,4522
1705466436410,473191,376822,4569
1705466436426,473121,376807,4537
1705466436441,473258,376825,4607
1705466436457,473253,376836,4609
1705466436473,473249,376835,4582
1705466436488,473353,376832,4605
1705466436517,473285,376932,4617
1705466436533,473342,376921,4652
1705466436548,473358,376877,4626
1705466436564,473369,376951,4647
1705466436580,473332,377034,4607
1705466436595,473361,376995,4605
1705466436607,473394,377010,4606
1705466436623,473334,377073,4608
1705466436638,473481,377062,4596
1705466436654,473425,377070,4607
1705466436670,473494,377210,4624
1705466436685,473559,377111,4516
1705466436694,473553,377110,4630
1705466436710,473588,377160,4518
1705466436725,473622,377166,4604
1705466436741,473542,377054,4629
1705466436757,473373,377062,4660
1705466436772,473314,376970,4603
1705466436798,473183,376859,4609
1705466436814,473055,376849,4660
1705466436829,472999,376814,4631
1705466436845,472996,376727,4649
1705466436861,472886,376717,4604
1705466436876,473021,376740,4632
1705466436893,473011,376727,4614
1705466436909,472955,376771,4605
1705466436924,472947,376778,4618
1705466436940,473102,376766,4606
1705466436956,473125,376843,4605
1705466436971,473101,376739,4574
1705466436979,473054,376789,4633
1705466436995,473058,376683,4591
1705466437010,473112,376753,4645
1705466437026,473094,376690,4601
1705466437042,473091,376777,4707
1705466437057,473060,376732,4602
1705466437072,473108,376763,4603
1705466437088,473142,376778,4648
1705466437103,473051,376809,4606
1705466437119,473141,376818,4523
1705466437135,473111,376772,4591
1705466437150,473151,376844,4591
1705466437175,473250,376856,4605
1705466437191,473309,376813,4603
1705466437206,473201,376820,4602
1705466437222,473281,376885,4603
1705466437238,473330,376772,4603
1705466437253,473331,376884,4674
1705466437267,473321,376932,4630
1705466437283,473390,376903,4604
1705466437298,473362,376987,4698
1705466437314,473390,376989,4629
1705466437330,473425,377072,4591
1705466437345,473358,377033,4621
1705466437355,473476,377017,4608
1705466437371,473493,377039,4515
1705466437386,473423,376963,4589
1705466437402,473271,376996,4603
1705466437418,473141,376818,4535
1705466437433,472975,376816,4602
1705466437449,472896,376706,4610
1705466437465,472937,376681,4600
1705466437480,472859,376528,4582
1705466437496,472848,376558,4598
1705466437512,472804,376521,4600
1705466437527,472744,376512,4653
1705466437549,472752,376540,4599
1705466437565,472761,376599,4605
1705466437580,472812,376539,4657
1705466437596,472727,376580,4600
1705466437612,472776,376623,4613
1705466437627,472857,376553,4512
1705466437638,472786,376587,4601
1705466437654,472845,376534,4551
1705466437669,472902,376527,4600
1705466437685,472792,376510,4601
1705466437701,472798,376569,4603
1705466437716,472869,376487,4589
1705466437733,472838,376519,4630
1705466437749,472830,376500,4629
1705466437764,472870,376427,4596
1705466437780,472828,376574,4640
1705466437796,472780,376484,4602
1705466437811,472832,376630,4616
1705466437823,472856,376557,4600
1705466437839,472763,376663,4601
1705466437854,472912,376598,4531
1705466437870,472788,376559,4600
1705466437886,472921,376634,4600
1705466437901,472938,376560,4513
1705466437923,472949,376622,4601
1705466437939,472967,376697,4577
1705466437954,473081,376720,4572
1705466437970,472969,376604,4596
1705466437986,473080,376736,4643
1705466438001,473127,376693,4599
1705466438017,473092,376773,4602
1705466438033,473145,376770,4692
1705466438048,473048,376798,4602
1705466438064,473129,376729,4627
1705466438080,473118,376871,4621
1705466438095,473167,376956,4613
1705466438108,473210,376759,4600
1705466438124,473004,376791,4601
1705466438139,472907,376686,4593
1705466438155,472734,376488,4600
1705466438171,472646,376429,4543
1705466438186,472460,376376,4571
1705466438197,472368,376230,4626
1705466438213,472299,376139,4620
1705466438228,472255,376118,4628
1705466438244,472272,376041,4600
1705466438260,472181,376096,4659
1705466438275,472108,376061,4628
1705466438284,472138,376058,4597
1705466438300,472145,376032,4652
1705466438315,472134,376098,4597
1705466438331,472207,376048,4591
1705466438347,472176,376006,4513
1705466438362,472110,376077,4598
1705466438392,472124,375994,4582
1705466438408,472170,375938,4599
1705466438423,472096,375906,4569
1705466438439,472086,375900,4575
1705466438455,472166,375854,4597
1705466438470,472114,375942,4616
1705466438482,472093,375938,4560
1705466438498,472154,375843,4618
1705466438513,472109,375879,4672
1705466438529,472084,375964,4598
1705466438545,472116,375969,4592
1705466438560,472154,376015,4621
1705466438570,472127,375998,4603
1705466438586,472176,376022,4509
1705466438601,472052,376007,4599
1705466438617,472158,376032,4614
1705466438633,472131,376015,4508
1705466438648,472207,375970,4599
1705466438674,472198,376041,4596
1705466438690,472252,376088,4597
1705466438705,472226,375964,4597
1705466438721,472268,376098,4644
1705466438737,472311,376123,4599
1705466438752,472261,376052,4585
1705466438766,472287,376122,4584
1705466438782,472306,376182,4596
1705466438797,472332,376163,4637
1705466438813,472225,376119,4600
1705466438829,472218,376104,4621
1705466438844,472046,375992,4540
1705466438853,471862,375801,4596
1705466438869,471709,375708,4492
1705466438884,471653,375640,4579
1705466438900,471555,375542,4592
1705466438916,471546,375493,4568
1705466438931,471503,375450,4598
1705466438948,471340,375352,4603
1705466438964,471393,375327,4637
1705466438979,471347,375256,4596
1705466438995,471333,375258,4699
1705466439011,471287,375267,4598
1705466439026,471315,375307,4593
1705466439050,471309,375275,4593
1705466439066,471250,375303,4595
1705466439081,471270,375228,4584
1705466439097,471284,375262,4602
1705466439113,471190,375262,4590
1705466439128,471273,375151,4511
1705466439139,471223,375125,4614
1705466439155,471187,375179,4599
1705466439170,471259,375136,4566
1705466439186,471222,375066,4600
1705466439202,471165,375181,4667
1705466439217,471313,375172,4596
1705466439230,471304,375200,4579
1705466439246,471216,375185,4692
1705466439261,471223,375210,4616
1705466439277,471308,375214,4614
1705466439293,471214,375239,4613
1705466439308,471254,375291,4599
1705466439322,471297,375239,4607
1705466439338,471171,375292,4599
1705466439353,471334,375354,4606
1705466439369,471371,375287,4573
1705466439385,471396,375275,4597
1705466439400,471413,375360,4591
1705466439423,471443,375391,4609
1705466439439,471403,375251,4578
1705466439454,471443,375425,4651
1705466439470,471491,375381,4600
1705466439486,471499,375381,4655
1705466439501,471424,375370,4626
1705466439499,471436,375333,4596
1705466439515,471324,375276,4652
1705466439530,471060,375197,4596
1705466439546,470931,375055,4595
1705466439562,470830,374963,4498
1705466439577,470699,374894,4596
1705466439608,470692,374798,4545
1705466439624,470665,374752,4604
1705466439639,470533,374666,4597
1705466439655,470545,374636,4598
1705466439671,470579,374603,4596
1705466439686,470472,374480,4643
1705466439698,470549,374577,4597
1705466439714,470492,374527,4595
1705466439729,470475,374547,4689
1705466439745,470425,374550,4599
1705466439761,470523,374634,4598
1705466439776,470522,374546,4652
1705466439786,470378,374478,4596
1705466439802,470433,374530,4547
1705466439817,470386,374510,4614
1705466439833,470374,374561,4547
1705466439849,470404,374515,4508
1705466439864,470485,374467,4598
1705466439892,470388,374487,4579
1705466439908,470451,374496,4576
1705466439923,470486,374397,4593
1705466439939,470447,374492,4586
1705466439955,470498,374480,4600
1705466439970,470423,374524,4617
1705466439979,470439,374576,4610
1705466439995,470436,374599,4601
1705466440010,470494,374592,4643
1705466440026,470423,374565,4574
1705466440042,470487,374692,4601
1705466440057,470518,374662,4514
1705466440070,470600,374694,4601
1705466440086,470560,374732,4566
1705466440101,470602,374742,4516
1705466440117,470696,374759,4600
1705466440133,470620,374758,4606
1705466440148,470760,374745,4599
1705466440174,470683,374773,4602
1705466440190,470707,374819,4651
1705466440205,470709,374770,4602
1705466440221,470738,374785,4640
1705466440237,470520,374728,4629
1705466440252,470360,374618,4614
1705466440266,470222,374477,4599
1705466440282,470056,374366,4587
1705466440297,469942,374337,4620
1705466440313,469869,374227,4603
1705466440329,469732,374252,4584
1705466440344,469837,374129,4510
1705466440369,469809,374119,4567
1705466440385,469730,374078,4598
1705466440400,469810,374042,4567
1705466440416,469822,374041,4601
1705466440432,469733,374084,4583
1705466440447,469817,374079,4641
1705466440443,469759,374038,4562
1705466440459,469777,374057,4664
1705466440474,469717,374070,4602
1705466440490,469738,373999,4601
1705466440506,469744,374030,4615
1705466440521,469703,373997,4602
1705466440550,469698,373962,4589
1705466440566,469664,374065,4620
1705466440581,469703,374088,4602
1705466440597,469713,374037,4607
1705466440613,469816,373985,4604
1705466440628,469732,374047,4516
1705466440641,469783,374066,4608
1705466440657,469760,374125,4612
1705466440672,469790,374087,4658
1705466440688,469895,374115,4603
1705466440704,469816,374061,4590
1705466440719,469796,374190,4644
1705466440728,469795,374212,4581
1705466440744,469918,374201,4661
1705466440759,469823,374233,4604
1705466440775,469930,374290,4630
1705466440791,469977,374319,4552
1705466440806,469913,374370,4604
1705466440823,470108,374359,4544
1705466440839,470060,374421,4566
1705466440854,470094,374438,4605
1705466440870,470077,374444,4592
1705466440886,470236,374461,4604
1705466440901,470178,374360,4607
1705466440926,470147,374430,4603
1705466440942,470068,374264,4607
1705466440957,469912,374267,4680
1705466440973,469651,374141,4602
1705466440989,469540,374084,4597
1705466441004,469450,373974,4656
1705466441014,469382,373906,4620
1705466441030,469355,373898,4548
1705466441045,469343,373879,4588
1705466441061,469323,373894,4598
1705466441077,469343,373863,4567
1705466441092,469400,373851,4601
1705466441121,469414,373848,4602
1705466441137,469362,373874,4572
1705466441152,469457,373774,4604
1705466441168,469416,373892,4644
1705466441184,469515,373859,4603
1705466441199,469458,373800,4602
1705466441198,469484,373836,4604
1705466441214,469337,373865,4603
1705466441229,469438,373917,4634
1705466441245,469462,373904,4604
1705466441261,469448,373981,4608
1705466441276,469480,373925,4514
1705466441284,469489,373885,4590
1705466441300,469424,374043,4613
1705466441315,469518,373933,4517
1705466441331,469507,373964,4607
1705466441347,469556,374011,4617
1705466441362,469645,374004,4608
1705466441377,469553,374021,4606
1705466441393,469618,374057,4658
1705466441408,469635,374074,4604
1705466441424,469607,374040,4641
1705466441440,469581,374167,4633
1705466441455,469677,374244,4607
1705466441495,469744,374196,4621
1705466441511,469732,374239,4607
1705466441526,469789,374350,4617
1705466441542,469857,374237,4606
1705466441558,469756,374325,4606
1705466441573,469894,374377,4577
1705466441574,469898,374414,4608
1705466441590,469948,374412,4609
1705466441605,469977,374388,4576
1705466441621,469988,374403,4609
1705466441637,469886,374248,4650
1705466441652,469822,374282,4632
1705466441661,469610,374143,4601
1705466441677,469445,374051,4697
1705466441692,469324,374003,4606
1705466441708,469292,373981,4577
1705466441724,469372,373977,4658
1705466441739,469186,373961,4603
1705466441775,469284,373851,4555
1705466441791,469274,373928,4620
1705466441806,469328,373894,4612
1705466441822,469411,373928,4611
1705466441838,469448,373887,4605
1705466441853,469461,373932,4604
1705466441854,469515,373919,4609
1705466441870,469441,373925,4613
1705466441885,469464,373942,4658
1705466441901,469566,373972,4608
1705466441917,469437,373839,4623
1705466441932,469542,373927,4700
1705466441945,469452,373978,4629
1705466441961,469535,373940,4652
1705466441976,469414,373992,4629
1705466441992,469514,374026,4617
1705466442008,469544,374054,4525
1705466442023,469503,374106,4608
1705466442050,469570,374092,4608
1705466442066,469632,374090,4528
1705466442081,469625,374089,4607
1705466442097,469642,374169,4578
1705466442113,469765,374175,4607
1705466442128,469775,374104,4631
1705466442143,469753,374245,4630
1705466442159,469859,374178,4605
1705466442174,469844,374243,4670
1705466442190,469846,374311,4598
1705466442206,469881,374392,4624
1705466442221,469944,374357,4659
1705466442229,470022,374371,4635
1705466442245,469984,374503,4600
1705466442260,470079,374481,4521
1705466442276,470135,374560,4586
1705466442292,470104,374523,4525
1705466442307,470205,374622,4610
1705466442322,470132,374524,4611
1705466442338,470138,374536,4579
1705466442353,470109,374389,4610
1705466442369,469893,374299,4629
1705466442385,469773,374184,4630
1705466442400,469625,374059,4626
1705466442425,469633,373992,4602
1705466442441,469574,373907,4608
1705466442456,469583,373882,4602
1705466442472,469642,373805,4608
1705466442488,469518,373850,4609
1705466442503,469670,373741,4520
1705466442516,469652,373735,4609
1705466442532,469704,373812,4630
1705466442547,469724,373680,4521
1705466442563,469737,373683,4591
1705466442579,469757,373613,4523
1705466442594,469808,373583,4608
1705466442605,469786,373542,4609
1705466442621,469759,373495,4652
1705466442636,469798,373423,4609
1705466442652,469710,373403,4608
1705466442668,469750,373365,4627
1705466442683,469649,373341,4607
1705466442698,469698,373225,4628
1705466442714,469744,373245,4607
1705466442729,469697,373348,4638
1705466442745,469720,373192,4617
1705466442761,469641,373274,4607
1705466442776,469686,373227,4496
1705466442800,469775,373254,4607
1705466442816,469850,373258,4567
1705466442831,469798,373263,4577
1705466442847,469916,373259,4581
1705466442863,469888,373218,4594
1705466442878,469817,373282,4632
1705466442889,469880,373342,4589
1705466442905,469925,373341,4709
1705466442920,469890,373332,4605
1705466442936,469979,373390,4608
1705466442952,470044,373431,4622
1705466442967,469926,373464,4606
1705466442982,470075,373431,4562
1705466442998,470110,373430,4592
1705466443013,470076,373573,4599
1705466443029,470190,373473,4542
1705466443045,470247,373368,4604
1705466443060,470029,373297,4640
1705466443072,469849,373166,4604
1705466443088,469723,372977,4608
1705466443103,469537,372966,4671
1705466443119,469510,372877,4604
1705466443135,469358,372771,4595
1705466443150,469296,372790,4694
1705466443160,469347,372746,4601
1705466443176,469305,372759,4636
1705466443191,469306,372740,4618
1705466443207,469344,372772,4623
1705466443223,469287,372711,4590
1705466443238,469286,372688,4604
1705466443267,469408,372823,4600
1705466443283,469394,372742,4512
1705466443298,469373,372797,4600
1705466443314,469297,372761,4593
1705466443330,469401,372663,4603
1705466443345,469364,372605,4601
1705466443358,469400,372677,4599
1705466443374,469367,372705,4599
1705466443389,469300,372688,4656
1705466443405,469235,372684,4600
1705466443421,469390,372797,4605
1705466443436,469349,372765,4651
1705466443445,469342,372787,4600
1705466443461,469414,372854,4610
1705466443476,469393,372823,4514
1705466443492,469414,372898,4601
1705466443508,469343,372857,4567
1705466443523,469450,372860,4608
1705466443550,469447,372922,4582
1705466443566,469466,372930,4578
1705466443581,469490,372891,4599
1705466443597,469459,372918,4621
1705466443613,469466,373008,4629
1705466443628,469479,373020,4612
1705466443642,469470,373136,4627
1705466443658,469431,373256,4601
1705466443673,469531,373317,4613
1705466443689,469553,373316,4609
1705466443705,469438,373452,4599
1705466443720,469653,373398,4549
1705466443744,469598,373364,4612
1705466443760,469593,373374,4605
1705466443775,469505,373210,4509
1705466443791,469402,373135,4596
1705466443807,469191,372999,4598
1705466443822,469108,372893,4576
1705466443820,468978,372800,4580
1705466443836,468948,372683,4647
1705466443851,468905,372646,4558
1705466443867,468848,372528,4594
1705466443883,468822,372534,4687
1705466443898,468718,372584,4596
1705466443925,468796,372496,4593
1705466443941,468747,372530,4616
1705466443956,468840,372567,4631
1705466443972,468966,372507,4570
1705466443988,468772,372514,4593
1705466444003,468847,372516,4607
1705466444027,468847,372464,4564
1705466444043,468865,372407,4624
1705466444058,468885,372442,4567
1705466444074,468864,372482,4603
1705466444090,468851,372380,4616
1705466444105,468788,372516,4635
1705466444105,468768,372449,4605
1705466444121,468748,372589,4655
1705466444136,468758,372539,4619
1705466444152,468819,372632,4589
1705466444168,468778,372596,4646
1705466444183,468755,372673,4593
1705466444198,468767,372672,4563
1705466444214,468829,372744,4504
1705466444229,468799,372864,4589
1705466444245,468857,372842,4534
1705466444261,468955,372842,4590
1705466444276,468989,372876,4591
1705466444301,468972,372969,4592
1705466444317,469070,372957,4590
1705466444332,468990,373056,4576
1705466444348,469132,373113,4590
1705466444364,469095,373156,4609
1705466444379,469158,373304,4680
1705466444390,469160,373446,4590
1705466444406,469239,373483,4586
1705466444421,469265,373503,4608
1705466444437,469232,373577,4563
1705466444453,469224,373458,4534
1705466444468,468966,373433,4591
1705466444495,468934,373399,4602
1705466444511,468866,373395,4496
1705466444526,468872,373329,4590
1705466444542,468797,373372,4544
1705466444558,468848,373407,4589
1705466444573,468878,373306,4615
1705466444586,468820,373450,4592
1705466444602,468938,373448,4594
1705466444617,468970,373492,4576
1705466444633,468956,373567,4607
1705466444649,469047,373710,4591
1705466444664,469126,373645,4648
1705466444674,469069,373636,4610
1705466444690,469126,373768,4592
1705466444705,469140,373709,4509
1705466444721,469177,373724,4592
1705466444737,469136,373766,4508
1705466444752,469212,373778,4577
1705466444764,469206,373707,4605
1705466444780,469212,373835,4560
1705466444795,469293,373851,4591
1705466444811,469279,373867,4598
1705466444827,469284,373876,4627
1705466444842,469269,373894,4595
1705466444857,469234,373944,4632
1705466444873,469311,373999,4594
1705466444888,469368,374052,4590
1705466444904,469377,374063,4605
1705466444920,469395,374128,4594
