timestamp,ambient,infrared,red
1705453594894,173055,172955,4419
1705453594912,449088,345042,4492
1705453594912,449132,345116,4491
1705453594907,449222,345213,4466
1705453594910,449174,345059,4488
1705453594928,449174,345059,4488
1705453594928,449174,345059,4488
1705453594923,449174,345059,4488
1705453594925,449082,345010,4432
1705453594943,449082,345010,4432
1705453594943,449082,345010,4432
1705453594938,449082,345010,4432
1705453594941,449061,345028,4517
1705453594959,449061,345028,4517
1705453594959,449061,345028,4517
1705453594954,449061,345028,4517
1705453594957,449152,345032,4482
1705453594975,449152,345032,4482
1705453594975,449152,345032,4482
1705453594970,449152,345032,4482
1705453594972,449060,344977,4503
1705453594990,449060,344977,4503
1705453594985,449060,344977,4503
1705453594990,449060,344977,4503
1705453594985,449016,345065,4485
1705453595001,449095,345116,4483
1705453595016,449101,345050,4477
1705453595032,449011,345035,4484
1705453595048,449087,345134,4485
1705453595063,449083,345099,4482
1705453595059,449129,345130,4485
1705453595075,449110,345143,4437
1705453595090,449161,345146,4491
1705453595106,449132,345157,4466
1705453595122,449125,345145,4469
1705453595137,449254,345103,4486
1705453595172,449179,345166,4497
1705453595188,449194,345168,4513
1705453595203,449207,345129,4485
1705453595219,449237,345180,4483
1705453595235,449227,345172,4487
1705453595250,449262,345232,4490
1705453595258,449238,345228,4488
1705453595274,449142,345213,4470
1705453595289,449290,345251,4404
1705453595305,449235,345250,4484
1705453595321,449327,345308,4509
1705453595336,449362,345287,4433
1705453595344,449393,345244,4485
1705453595360,449301,345261,4471
1705453595375,449262,345247,4471
1705453595391,449255,345101,4483
1705453595407,449212,345132,4553
1705453595422,449185,345076,4483
1705453595449,449145,345036,4493
1705453595465,449020,345051,4554
1705453595480,448982,345057,4485
1705453595496,448967,345017,4452
1705453595512,448918,344981,4503
1705453595527,449012,345074,4511
1705453595543,448998,344997,4497
1705453595559,448878,344965,4500
1705453595574,449032,345017,4455
1705453595590,449018,344974,4466
1705453595606,449043,344968,4475
1705453595621,449021,344944,4472
1705453595632,448972,344977,4483
1705453595648,448954,344871,4503
1705453595663,448947,344964,4549
1705453595679,449026,344900,4491
1705453595695,449001,344924,4526
1705453595710,448843,344948,4514
1705453595719,448945,344916,4480
1705453595735,448967,344967,4479
1705453595750,448872,344987,4485
1705453595766,448939,344980,4480
1705453595782,448992,344937,4412
1705453595797,448912,345058,4494
1705453595814,448944,345006,4488
1705453595830,449065,345007,4484
1705453595845,449037,345010,4465
1705453595861,449058,345036,4465
1705453595877,449115,344965,4486
1705453595892,449079,345016,4474
1705453595918,449164,345094,4508
1705453595934,449160,344987,4483
1705453595949,449098,345119,4556
1705453595965,449108,345077,4464
1705453595981,449156,345098,4484
1705453595996,449209,345117,4462
1705453596006,449241,345149,4486
1705453596022,449191,345115,4419
1705453596037,449143,345155,4488
1705453596053,449288,345148,4486
1705453596069,449189,345176,4430
1705453596084,449340,345112,4485
1705453596099,449279,345216,4467
1705453596115,449371,345229,4492
1705453596130,449255,345126,4507
1705453596146,449334,345205,4518
1705453596162,449361,345235,4483
1705453596177,449248,345144,4488
1705453596200,449289,345181,4474
1705453596216,449129,345189,4484
1705453596231,449181,345078,4480
1705453596247,449048,345073,4484
1705453596263,449082,345140,4484
1705453596278,449005,345006,4413
1705453596290,449001,345009,4493
1705453596306,449019,344977,4451
1705453596321,448980,344951,4463
1705453596337,448947,344939,4450
1705453596353,448953,344963,4486
1705453596368,448980,344986,4481
1705453596382,448960,344964,4499
1705453596398,449014,344952,4515
1705453596413,448949,344876,4483
1705453596429,448972,344965,4562
1705453596445,448959,344977,4480
1705453596460,448951,344931,4497
1705453596469,448958,344870,4507
1705453596485,448887,344990,4486
1705453596500,448905,344946,4407
1705453596516,448905,344916,4484
1705453596532,448912,345024,4484
1705453596547,448932,344934,4418
1705453596559,449001,344967,4458
1705453596575,449017,344937,4473
1705453596590,448967,344963,4463
1705453596606,449024,344878,4483
1705453596622,449008,345001,4518
1705453596637,449056,344978,4486
1705453596667,449018,344971,4488
1705453596683,448996,345005,4554
1705453596698,448904,345026,4485
1705453596714,449080,345046,4388
1705453596730,449019,345083,4509
1705453596745,449098,345147,4487
1705453596758,449128,345070,4453
1705453596774,448986,345048,4487
1705453596789,449171,345166,4510
1705453596805,449181,345120,4490
1705453596821,449217,345056,4489
1705453596836,449186,345130,4487
1705453596849,449247,345143,4485
1705453596865,449230,345095,4458
1705453596880,449260,345143,4533
1705453596896,449262,345178,4487
1705453596912,449237,345155,4518
1705453596927,449210,345223,4486
1705453596935,449310,345214,4488
1705453596951,449335,345253,4484
1705453596966,449338,345280,4487
1705453596982,449376,345297,4488
1705453596998,449361,345265,4419
1705453597013,449218,345382,4486
1705453597042,449406,345234,4493
1705453597058,449404,345203,4494
1705453597073,449238,345119,4486
1705453597089,449181,345129,4467
1705453597105,449198,345064,4487
1705453597120,449154,345011,4544
1705453597133,449148,345150,4470
1705453597149,449124,345020,4497
1705453597164,449016,345081,4555
1705453597180,449010,345023,4486
1705453597196,449052,345056,4485
1705453597211,449006,345033,4489
1705453597220,449037,345022,4486
1705453597236,449132,345047,4407
1705453597251,449083,345057,4500
1705453597267,449068,345057,4507
1705453597283,449077,345018,4419
1705453597298,449101,345012,4482
1705453597324,449098,345037,4484
1705453597340,449064,345035,4466
1705453597355,449121,344911,4486
1705453597371,449053,344976,4531
1705453597387,449114,344998,4485
1705453597402,449024,344946,4485
1705453597415,449034,345000,4469
1705453597431,448967,345010,4487
1705453597446,449046,345070,4451
1705453597462,449074,345010,4505
1705453597478,449158,345123,4514
1705453597493,449092,345066,4473
1705453597504,449162,345144,4486
1705453597520,449204,345130,4454
1705453597535,449165,345097,4428
1705453597551,449241,345132,4482
1705453597567,449341,345115,4471
1705453597582,449302,345152,4486
1705453597599,449250,345216,4486
1705453597615,449252,345134,4552
1705453597630,449334,345107,4486
1705453597646,449282,345148,4529
1705453597662,449241,345197,4517
1705453597677,449378,345234,4486
1705453597690,449361,345228,4487
1705453597706,449274,345264,4487
1705453597721,449382,345272,4475
1705453597737,449399,345256,4450
1705453597753,449357,345335,4499
1705453597768,449463,345317,4478
1705453597793,449521,345296,4509
1705453597809,449511,345309,4468
1705453597824,449509,345354,4468
1705453597840,449551,345302,4489
1705453597856,449552,345324,4504
1705453597871,449623,345346,4529
1705453597879,449601,345330,4508
1705453597895,449542,345341,4558
1705453597910,449385,345322,4488
1705453597926,449413,345265,4485
1705453597942,449393,345239,4463
1705453597957,449257,345262,4482
1705453597974,449282,345201,4496
1705453597990,449178,345182,4487
1705453598005,449310,345235,4457
1705453598021,449287,345141,4491
1705453598037,449379,345118,4487
1705453598052,449307,345207,4462
1705453598074,449314,345171,4485
1705453598090,449333,345082,4509
1705453598105,449322,345185,4554
1705453598121,449338,345190,4487
1705453598137,449307,345092,4490
1705453598152,449313,345177,4528
1705453598164,449294,345192,4490
1705453598180,449301,345146,4487
1705453598195,449215,345189,4485
1705453598211,449353,345163,4489
1705453598227,449357,345162,4419
1705453598242,449223,345206,4488
1705453598256,449340,345193,4441
1705453598272,449344,345175,4475
1705453598287,449377,345180,4470
1705453598303,449382,345192,4478
1705453598319,449445,345246,4487
1705453598334,449407,345171,4472
1705453598344,449438,345245,4498
1705453598360,449453,345189,4488
1705453598375,449428,345288,4566
1705453598391,449494,345304,4465
1705453598407,449525,345316,4490
1705453598422,449544,345336,4483
1705453598434,449520,345363,4486
1705453598450,449524,345363,4390
1705453598465,449490,345340,4487
1705453598481,449583,345394,4470
1705453598497,449581,345380,4416
1705453598512,449690,345381,4490
1705453598543,449663,345397,4497
1705453598559,449702,345382,4459
1705453598574,449691,345352,4488
1705453598590,449669,345430,4531
1705453598606,449718,345453,4492
1705453598621,449707,345350,4491
1705453598633,449749,345499,4508
1705453598649,449698,345461,4491
1705453598664,449767,345525,4454
1705453598680,449737,345478,4491
1705453598696,449746,345568,4492
1705453598711,449733,345505,4419
1705453598719,449673,345409,4499
1705453598735,449633,345452,4457
1705453598750,449609,345341,4420
1705453598766,449535,345302,4488
1705453598782,449550,345327,4488
1705453598797,449624,345263,4490
1705453598840,449469,345382,4456
1705453598856,449529,345304,4556
1705453598871,449497,345259,4488
1705453598887,449458,345278,4504
1705453598903,449387,345265,4515
1705453598918,449473,345311,4487
1705453598916,449514,345351,4441
1705453598932,449417,345293,4489
1705453598947,449571,345372,4516
1705453598963,449486,345294,4525
1705453598979,449431,345356,4490
1705453598994,449492,345305,4440
1705453599007,449590,345279,4488
1705453599023,449496,345187,4490
1705453599038,449522,345269,4469
1705453599054,449499,345262,4490
1705453599070,449544,345224,4549
1705453599085,449572,345322,4496
1705453599094,449551,345343,4489
1705453599110,449600,345319,4546
1705453599125,449534,345353,4490
1705453599141,449651,345366,4488
1705453599157,449590,345375,4482
1705453599172,449608,345433,4489
1705453599200,449653,345426,4475
1705453599216,449616,345384,4504
1705453599231,449700,345472,4518
1705453599247,449642,345437,4472
1705453599263,449804,345390,4491
1705453599278,449777,345439,4480
1705453599292,449790,345463,4513
1705453599308,449835,345472,4481
1705453599323,449808,345468,4558
1705453599339,449821,345496,4465
1705453599355,449805,345424,4488
1705453599370,449873,345480,4512
1705453599379,449905,345546,4491
1705453599395,449896,345578,4458
1705453599410,449767,345586,4512
1705453599426,449971,345615,4491
1705453599442,449941,345597,4435
1705453599457,449822,345629,4491
1705453599472,449942,345539,4489
1705453599488,449938,345576,4432
1705453599503,449857,345512,4483
1705453599519,449827,345480,4465
1705453599535,449871,345451,4476
1705453599550,449782,345368,4476
1705453599575,449677,345399,4492
1705453599591,449727,345365,4487
1705453599606,449592,345384,4528
1705453599622,449584,345338,4474
1705453599638,449622,345397,4490
1705453599653,449630,345331,4455
1705453599665,449641,345378,4509
1705453599681,449570,345374,4493
1705453599696,449624,345315,4423
1705453599712,449662,345362,4474
1705453599728,449637,345317,4421
1705453599743,449711,345351,4489
1705453599764,449626,345369,4486
1705453599780,449657,345354,4471
1705453599795,449680,345248,4489
1705453599811,449627,345336,4517
1705453599827,449690,345312,4528
1705453599842,449678,345249,4487
1705453599850,449643,345354,4488
1705453599866,449609,345348,4488
1705453599881,449665,345326,4489
1705453599897,449697,345353,4490
1705453599913,449616,345421,4486
1705453599928,449693,345380,4473
1705453599949,449614,345337,4507
1705453599965,449729,345468,4461
1705453599980,449760,345403,4424
1705453599996,449783,345315,4513
1705453600012,449767,345440,4454
1705453600027,449783,345435,4493
1705453600039,449866,345432,4526
1705453600055,449811,345467,4542
1705453600070,449937,345463,4491
1705453600086,449912,345486,4472
1705453600102,449850,345477,4547
1705453600117,449817,345532,4487
1705453600133,449884,345498,4542
1705453600149,449831,345495,4488
1705453600164,449891,345548,4503
1705453600180,449905,345573,4498
1705453600196,449875,345555,4489
1705453600211,449991,345571,4455
1705453600235,449972,345586,4489
1705453600251,450002,345580,4470
1705453600266,449992,345630,4474
1705453600282,449992,345574,4488
1705453600298,449931,345472,4487
1705453600313,449883,345496,4531
1705453600311,449840,345383,4490
1705453600327,449825,345431,4566
1705453600342,449715,345444,4488
1705453600358,449688,345384,4510
1705453600374,449759,345368,4479
1705453600389,449624,345427,4488
1705453600418,449657,345365,4446
1705453600434,449674,345326,4477
1705453600449,449705,345362,4456
1705453600465,449660,345354,4443
1705453600481,449741,345366,4487
1705453600496,449678,345284,4468
1705453600508,449775,345360,4485
1705453600524,449692,345257,4488
1705453600539,449731,345328,4569
1705453600555,449728,345352,4488
1705453600571,449682,345213,4486
1705453600586,449654,345308,4557
1705453600595,449659,345331,4488
1705453600611,449642,345304,4471
1705453600626,449675,345321,4509
1705453600642,449625,345340,4488
1705453600658,449656,345359,4419
1705453600673,449574,345389,4460
1705453600699,449674,345441,4487
1705453600715,449708,345385,4440
1705453600730,449779,345405,4486
1705453600746,449736,345466,4490
1705453600762,449862,345413,4494
1705453600777,449807,345356,4472
1705453600793,449777,345418,4491
1705453600809,449836,345412,4490
1705453600824,449848,345421,4522
1705453600840,449939,345437,4497
1705453600856,449918,345523,4487
1705453600871,449909,345473,4482
1705453600879,449914,345452,4499
1705453600895,449891,345581,4488
1705453600910,449921,345503,4421
1705453600926,449893,345555,4491
1705453600942,449909,345609,4441
1705453600957,450027,345513,4461
1705453600973,449987,345489,4467
1705453600989,450062,345518,4477
1705453601004,450132,345578,4491
1705453601020,450085,345569,4505
1705453601036,450104,345592,4519
1705453601051,449973,345459,4489
1705453601074,449948,345584,4485
1705453601090,449924,345433,4488
1705453601105,449915,345492,4490
1705453601121,449797,345386,4496
1705453601137,449732,345463,4488
1705453601152,449782,345386,4408
1705453601166,449687,345356,4511
1705453601182,449745,345391,4486
1705453601197,449724,345338,4420
1705453601213,449756,345303,4506
1705453601229,449733,345385,4458
1705453601244,449791,345339,4466
1705453601256,449740,345279,4481
1705453601272,449813,345356,4540
1705453601287,449711,345372,4485
1705453601303,449739,345391,4488
1705453601319,449686,345345,4556
1705453601334,449739,345358,4487
1705453601348,449692,345308,4483
1705453601364,449662,345346,4509
1705453601379,449760,345426,4513
1705453601395,449725,345329,4509
1705453601411,449664,345353,4496
1705453601426,449759,345346,4456
1705453601449,449822,345359,4488
1705453601465,449851,345338,4433
1705453601480,449820,345348,4466
1705453601496,449871,345453,4458
1705453601512,449802,345311,4511
1705453601527,449821,345423,4531
1705453601539,449877,345344,4489
1705453601555,449891,345404,4529
1705453601570,449805,345386,4518
1705453601586,449882,345468,4485
1705453601602,449905,345449,4487
1705453601617,449800,345538,4487
1705453601632,449933,345461,4484
1705453601648,449978,345509,4423
1705453601663,449864,345600,4499
1705453601679,449940,345499,4418
1705453601695,450035,345524,4487
1705453601710,449997,345495,4490
1705453601724,449953,345513,4489
1705453601740,450041,345531,4489
1705453601755,450047,345602,4515
1705453601771,450153,345607,4487
1705453601787,450080,345504,4512
1705453601802,450121,345575,4543
1705453601810,450045,345554,4511
1705453601826,450021,345614,4488
1705453601841,449896,345509,4511
1705453601857,449955,345529,4464
1705453601873,449877,345471,4418
1705453601888,449805,345422,4486
1705453601918,449844,345427,4488
1705453601934,449797,345358,4418
1705453601949,449812,345332,4485
1705453601965,449724,345373,4490
1705453601981,449762,345412,4492
1705453601996,449839,345295,4488
1705453602008,449736,345341,4483
1705453602024,449870,345360,4485
1705453602039,449795,345318,4487
1705453602055,449809,345386,4482
1705453602071,449759,345445,4485
1705453602086,449775,345378,4455
1705453602098,449746,345361,4488
1705453602114,449765,345437,4477
1705453602129,449708,345350,4416
1705453602145,449703,345413,4497
1705453602161,449766,345321,4413
1705453602176,449797,345394,4472
1705453602185,449760,345384,4486
1705453602201,449798,345387,4466
1705453602216,449861,345378,4487
1705453602232,449776,345421,4504
1705453602248,449731,345393,4531
1705453602263,449806,345350,4481
1705453602294,449782,345438,4533
1705453602310,449787,345435,4486
1705453602325,449891,345435,4486
1705453602341,449822,345432,4521
1705453602357,449769,345506,4487
1705453602372,449867,345524,4409
1705453602383,449851,345518,4480
1705453602399,449915,345535,4456
1705453602414,449982,345491,4420
1705453602430,450021,345507,4489
1705453602446,449955,345525,4471
1705453602461,449924,345517,4463
1705453602469,449965,345465,4468
1705453602485,449974,345583,4571
1705453602500,450055,345596,4487
1705453602516,450053,345531,4504
1705453602532,450026,345554,4557
1705453602547,449976,345627,4488
1705453602576,450115,345656,4441
1705453602592,450109,345660,4509
1705453602607,450141,345691,4491
1705453602623,450110,345668,4443
1705453602639,449922,345599,4486
1705453602654,449954,345587,4511
1705453602666,449961,345497,4485
1705453602682,449867,345472,4482
1705453602697,449839,345465,4484
1705453602713,449897,345431,4482
1705453602729,449812,345329,4467
1705453602744,449806,345395,4548
1705453602754,449803,345377,4483
1705453602770,449808,345365,4514
1705453602785,449713,345392,4509
1705453602801,449753,345432,4485
1705453602817,449819,345390,4504
1705453602832,449678,345385,4486
1705453602860,449786,345333,4464
1705453602876,449790,345384,4415
1705453602891,449592,345392,4483
1705453602907,449701,345359,4431
1705453602923,449844,345351,4492
1705453602938,449763,345351,4464
1705453602955,449787,345368,4469
1705453602971,449847,345335,4484
1705453602986,449747,345286,4545
1705453603002,449802,345384,4504
1705453603018,449822,345254,4487
1705453603033,449799,345354,4553
1705453603040,449748,345408,4503
1705453603056,449785,345427,4463
1705453603071,449795,345437,4477
1705453603087,449776,345454,4519
1705453603103,449835,345431,4405
1705453603118,449731,345416,4500
1705453603129,449915,345441,4485
1705453603145,449883,345451,4410
1705453603160,449960,345474,4487
1705453603176,449940,345442,4490
1705453603192,449987,345476,4463
1705453603207,449943,345418,4479
1705453603222,449901,345501,4487
1705453603238,450015,345505,4486
1705453603253,449956,345392,4484
1705453603269,449985,345527,4486
1705453603285,450030,345566,4485
1705453603300,450035,345597,4455
1705453603314,450079,345578,4488
1705453603330,450056,345634,4513
1705453603345,450094,345533,4416
1705453603361,450032,345580,4483
1705453603377,450023,345632,4482
1705453603392,450185,345617,4422
1705453603414,450065,345592,4481
1705453603430,450058,345591,4492
1705453603445,450080,345506,4484
1705453603461,449876,345453,4484
1705453603477,449874,345440,4552
1705453603492,449916,345352,4483
1705453603522,449822,345394,4476
1705453603538,449704,345350,4513
1705453603553,449779,345402,4485
1705453603569,449725,345326,4507
1705453603585,449712,345338,4469
1705453603600,449701,345343,4483
1705453603598,449840,345326,4485
1705453603614,449713,345359,4481
1705453603629,449768,345320,4415
1705453603645,449850,345306,4484
1705453603661,449736,345223,4458
1705453603676,449828,345269,4459
1705453603688,449714,345224,4483
1705453603704,449731,345227,4497
1705453603719,449762,345242,4523
1705453603735,449718,345241,4483
1705453603751,449717,345221,4541
1705453603766,449679,345254,4482
1705453603792,449718,345218,4485
1705453603808,449726,345234,4508
1705453603823,449719,345331,4483
1705453603839,449757,345261,4402
1705453603855,449753,345254,4485
1705453603870,449769,345291,4455
1705453603883,449759,345277,4474
1705453603899,449854,345238,4483
1705453603914,449795,345273,4492
1705453603930,449818,345285,4488
1705453603946,449842,345221,4498
1705453603961,449833,345310,4551
1705453603970,449864,345307,4485
1705453603986,449880,345275,4487
1705453604001,449883,345330,4512
1705453604017,449813,345382,4487
1705453604033,449920,345367,4484
1705453604048,449808,345391,4487
1705453604077,449896,345358,4466
1705453604093,449873,345371,4425
1705453604108,449809,345439,4485
1705453604124,449920,345333,4399
1705453604140,449912,345381,4468
1705453604155,450011,345417,4465
1705453604168,449976,345408,4470
1705453604184,450083,345473,4487
1705453604199,449926,345405,4464
1705453604215,449923,345407,4480
1705453604231,449893,345290,4485
1705453604246,449863,345273,4537
1705453604258,449773,345233,4484
1705453604274,449764,345211,4496
1705453604289,449674,345158,4477
1705453604305,449640,345221,4486
1705453604321,449592,345179,4430
1705453604336,449573,345142,4480
1705453604358,449591,345130,4458
1705453604374,449575,345097,4430
1705453604389,449573,345131,4484
1705453604405,449573,345049,4475
1705453604421,449510,345096,4458
1705453604436,449609,345002,4484
1705453604452,449496,345137,4531
1705453604468,449657,345110,4483
1705453604483,449507,344997,4484
1705453604499,449580,345050,4501
1705453604515,449514,345085,4480
1705453604530,449479,345069,4447
1705453604545,449504,345102,4469
1705453604561,449451,345126,4487
1705453604576,449527,345018,4464
1705453604592,449477,345048,4490
1705453604608,449644,345131,4467
1705453604623,449592,345086,4414
1705453604630,449571,345072,4472
1705453604646,449550,345082,4481
1705453604661,449617,345059,4487
1705453604677,449564,345043,4437
1705453604693,449549,345086,4551
1705453604708,449660,345083,4486
1705453604723,449559,345091,4496
1705453604739,449500,345155,4508
1705453604754,449653,345142,4503
1705453604770,449645,345160,4482
1705453604786,449549,345165,4486
1705453604801,449685,345239,4514
1705453604826,449726,345164,4471
1705453604842,449607,345239,4487
1705453604857,449708,345249,4439
1705453604873,449803,345201,4489
1705453604889,449815,345170,4465
1705453604904,449735,345231,4469
1705453604902,449787,345192,4485
1705453604918,449794,345195,4503
1705453604933,449867,345254,4516
1705453604949,449856,345184,4489
1705453604965,449848,345274,4558
1705453604980,449737,345208,4497
1705453605008,449673,345173,4482
1705453605024,449705,345101,4477
1705453605039,449495,345106,4486
1705453605055,449557,345004,4404
1705453605071,449473,345015,4486
1705453605086,449529,345034,4507
1705453605099,449471,344975,4476
1705453605115,449530,344948,4485
1705453605130,449519,344936,4468
1705453605146,449471,344993,4484
1705453605162,449383,344900,4477
1705453605177,449430,344942,4552
1705453605189,449476,344925,4459
1705453605205,449420,344814,4484
1705453605220,449414,344893,4556
1705453605236,449413,344868,4487
1705453605252,449461,344952,4472
1705453605267,449411,344905,4508
1705453605276,449344,344848,4485
1705453605292,449405,344853,4417
1705453605307,449289,344898,4486
1705453605323,449397,344900,4505
1705453605339,449448,344915,4425
1705453605354,449460,344905,4482
1705453605383,449420,344945,4448
1705453605399,449532,344877,4487
1705453605414,449523,344833,4511
1705453605430,449476,344895,4486
1705453605446,449532,344880,4489
1705453605461,449517,344910,4530
1705453605476,449505,344950,4489
1705453605492,449543,345017,4489
1705453605507,449564,344992,4478
1705453605523,449561,345021,4489
1705453605539,449623,345031,4475
1705453605554,449626,345032,4424
1705453605560,449634,345032,4495
1705453605576,449606,345010,4422
1705453605591,449683,345095,4489
1705453605607,449598,345114,4494
1705453605623,449635,345051,4466
1705453605638,449753,345014,4488
1705453605667,449731,345035,4508
1705453605683,449716,345110,4500
1705453605698,449705,345017,4490
1705453605714,449705,345098,4484
1705453605730,449777,345138,4491
1705453605745,449757,345140,4489
1705453605758,449743,345181,4498
1705453605774,449617,345120,4487
1705453605789,449649,345009,4422
1705453605805,449462,344943,4489
1705453605821,449474,345021,4487
1705453605836,449466,344898,4420
1705453605846,449429,344869,4487
1705453605862,449406,344862,4454
1705453605877,449472,344876,4488
1705453605893,449386,344793,4511
1705453605909,449391,344823,4543
1705453605924,449400,344775,4488
1705453605938,449351,344807,4495
1705453605954,449346,344835,4504
1705453605969,449387,344886,4486
1705453605985,449357,344829,4469
1705453606001,449316,344801,4487
1705453606016,449395,344880,4490
1705453606057,449427,344801,4494
1705453606073,449260,344859,4486
1705453606088,449381,344825,4417
1705453606104,449333,344805,4481
1705453606120,449347,344792,4488
1705453606135,449335,344805,4471
1705453606129,449416,344823,4487
1705453606145,449395,344746,4487
1705453606160,449352,344825,4510
1705453606176,449375,344739,4491
1705453606192,449425,344822,4542
1705453606207,449297,344899,4490
1705453606224,449408,344877,4489
1705453606240,449497,344916,4514
1705453606255,449337,344981,4492
1705453606271,449483,344891,4377
1705453606287,449487,344920,4488
1705453606302,449396,345036,4464
1705453606325,449545,344975,4471
1705453606341,449621,344982,4490
1705453606356,449578,344947,4492
1705453606372,449519,345016,4496
1705453606388,449667,344943,4489
1705453606403,449597,345012,4573
1705453606417,449675,345036,4464
1705453606433,449674,344952,4510
1705453606448,449658,345101,4560
1705453606464,449683,345067,4472
1705453606480,449645,345061,4497
1705453606495,449661,345052,4514
1705453606505,449588,344972,4490
1705453606521,449534,345020,4437
1705453606536,449428,344892,4489
1705453606552,449475,344907,4484
1705453606568,449412,344874,4420
1705453606583,449454,344798,4488
1705453606610,449403,344869,4481
1705453606626,449429,344830,4491
1705453606641,449385,344719,4493
1705453606657,449412,344809,4513
1705453606673,449477,344825,4491
1705453606688,449480,344784,4507
1705453606688,449355,344846,4481
1705453606704,449360,344870,4492
1705453606719,449438,344852,4469
1705453606735,449265,344824,4502
1705453606751,449376,344871,4519
1705453606766,449356,344817,4421
1705453606775,449349,344872,4488
1705453606791,449369,344850,4459
1705453606806,449507,344788,4498
1705453606822,449410,344794,4470
1705453606838,449413,344819,4474
1705453606853,449416,344838,4490
1705453606884,449434,344861,4479
1705453606900,449448,344888,4517
1705453606915,449397,344759,4505
1705453606931,449478,344856,4564
1705453606947,449437,344905,4492
1705453606962,449495,344943,4493
1705453606984,449516,344870,4484
1705453607000,449432,345007,4495
1705453607015,449530,344957,4411
1705453607031,449490,344936,4495
1705453607047,449555,344963,4493
1705453607062,449584,344964,4423
1705453607060,449629,344981,4514
1705453607076,449602,345038,4478
1705453607091,449620,344990,4474
1705453607107,449647,344939,4488
1705453607123,449625,345026,4559
1705453607138,449719,345022,4494
1705453607168,449688,345007,4523
1705453607184,449688,345028,4562
1705453607199,449602,345037,4495
1705453607215,449635,344993,4459
1705453607231,449539,344966,4514
1705453607246,449548,344969,4540
1705453607259,449419,344834,4511
1705453607275,449334,344915,4490
1705453607290,449416,344860,4461
1705453607306,449410,344801,4514
1705453607322,449367,344797,4486
1705453607337,449398,344818,4470
1705453607347,449343,344757,4492
1705453607363,449393,344691,4514
1705453607378,449342,344824,4491
1705453607394,449348,344788,4492
1705453607410,449376,344801,4533
1705453607425,449323,344824,4522
1705453607434,449382,344796,4515
1705453607450,449399,344805,4469
1705453607465,449279,344817,4491
1705453607481,449356,344798,4464
1705453607497,449358,344806,4425
1705453607512,449271,344839,4502
1705453607543,449331,344788,4432
1705453607559,449487,344817,4491
1705453607574,449366,344794,4473
1705453607590,449418,344806,4492
1705453607606,449450,344738,4490
1705453607621,449393,344770,4505
1705453607644,449492,344860,4537
1705453607660,449439,344730,4493
1705453607675,449435,344883,4562
1705453607691,449514,344853,4492
1705453607707,449424,344874,4493
1705453607722,449457,344889,4469
1705453607720,449483,344865,4491
1705453607736,449530,344883,4425
1705453607751,449389,344893,4494
1705453607767,449532,344903,4493
1705453607783,449546,344958,4421
1705453607798,449668,344893,4493
1705453607813,449631,344978,4473
1705453607829,449620,344994,4495
1705453607844,449616,344857,4516
1705453607860,449667,345023,4526
1705453607876,449695,344960,4463
1705453607891,449661,344893,4495
1705453607916,449700,344929,4492
1705453607932,449511,345000,4492
1705453607947,449471,344923,4490
1705453607963,449395,344863,4500
1705453607979,449416,344928,4504
1705453607994,449399,344824,4419
1705453608005,449363,344851,4469
1705453608021,449348,344808,4481
1705453608036,449446,344770,4477
1705453608052,449343,344796,4465
1705453608068,449376,344797,4470
1705453608083,449463,344769,4491
1705453608102,449353,344807,4526
1705453608118,449385,344771,4523
1705453608133,449381,344660,4492
1705453608149,449381,344723,4541
1705453608165,449353,344751,4492
1705453608180,449429,344720,4492
1705453608202,449373,344702,4515
1705453608218,449312,344783,4490
1705453608233,449367,344693,4414
1705453608249,449413,344687,4491
1705453608265,449326,344749,4493
1705453608280,449408,344675,4426
1705453608274,449401,344717,4470
1705453608290,449425,344679,4475
1705453608305,449426,344720,4475
1705453608321,449462,344622,4475
1705453608337,449467,344744,4574
1705453608352,449536,344740,4493
1705453608383,449487,344759,4510
1705453608399,449479,344703,4537
1705453608414,449426,344773,4492
1705453608430,449514,344771,4424
1705453608446,449515,344777,4518
1705453608461,449546,344890,4499
1705453608473,449575,344730,4531
1705453608489,449484,344799,4493
1705453608504,449549,344866,4517
1705453608520,449561,344817,4493
1705453608536,449656,344796,4494
1705453608551,449589,344873,4494
1705453608563,449662,344848,4492
1705453608579,449601,344819,4468
1705453608594,449653,344849,4560
1705453608610,449695,344893,4500
1705453608626,449651,344810,4525
1705453608641,449577,344866,4508
1705453608650,449538,344731,4507
1705453608666,449455,344752,4498
1705453608681,449383,344753,4492
1705453608697,449368,344771,4490
1705453608713,449360,344719,4421
1705453608728,449273,344718,4490
1705453608758,449301,344649,4460
1705453608774,449337,344656,4497
1705453608789,449359,344567,4472
1705453608805,449329,344655,4481
1705453608821,449388,344561,4491
1705453608836,449306,344603,4515
1705453608849,449317,344637,4490
1705453608865,449285,344528,4490
1705453608880,449281,344645,4542
1705453608896,449261,344620,4492
1705453608912,449349,344643,4490
1705453608927,449298,344586,4482
1705453608951,449226,344580,4488
1705453608967,449260,344643,4455
1705453608982,449226,344637,4505
1705453608998,449276,344592,4541
1705453609014,449356,344591,4418
1705453609029,449333,344608,4490
1705453609041,449266,344682,4491
1705453609057,449342,344611,4472
1705453609072,449382,344600,4500
1705453609088,449356,344632,4509
1705453609104,449459,344644,4492
1705453609119,449366,344603,4488
1705453609147,449329,344658,4508
1705453609163,449328,344696,4519
1705453609178,449381,344768,4460
1705453609194,449367,344687,4491
1705453609210,449443,344742,4517
1705453609225,449443,344762,4467
1705453609219,449443,344811,4491
1705453609235,449469,344768,4460
1705453609250,449518,344762,4475
1705453609266,449403,344716,4504
1705453609282,449490,344782,4471
1705453609297,449495,344803,4490
1705453609325,449531,344805,4495
1705453609341,449561,344859,4555
1705453609356,449620,344766,4491
1705453609372,449548,344866,4504
1705453609388,449467,344902,4523
1705453609403,449534,344873,4516
1705453609417,449510,344859,4472
1705453609433,449386,344835,4494
1705453609448,449453,344799,4488
1705453609464,449349,344674,4488
1705453609480,449259,344698,4499
1705453609495,449362,344704,4424
1705453609521,449387,344630,4493
1705453609537,449401,344644,4470
1705453609552,449363,344618,4476
1705453609568,449382,344571,4488
1705453609584,449388,344610,4502
1705453609599,449419,344572,4531
1705453609595,449447,344596,4492
1705453609611,449432,344608,4561
1705453609626,449423,344616,4492
1705453609642,449477,344600,4491
1705453609658,449470,344629,4466
1705453609673,449386,344662,4491
1705453609700,449486,344633,4500
1705453609716,449413,344612,4489
1705453609731,449567,344626,4462
1705453609747,449460,344639,4501
1705453609763,449527,344590,4494
1705453609778,449553,344612,4458
1705453609789,449600,344627,4493
1705453609805,449628,344528,4516
1705453609820,449669,344627,4542
1705453609836,449672,344664,4511
1705453609852,449638,344563,4495
1705453609867,449649,344635,4529
1705453609880,449745,344685,4467
1705453609896,449736,344679,4519
1705453609911,449651,344690,4497
1705453609927,449754,344675,4511
1705453609943,449769,344703,4428
1705453609958,449668,344761,4496
1705453609974,449803,344733,4467
1705453609990,449860,344725,4476
1705453610005,449881,344700,4479
1705453610021,449898,344761,4482
1705453610037,449958,344768,4494
1705453610052,449835,344642,4481
1705453610077,449903,344778,4495
1705453610093,449955,344667,4499
1705453610108,449945,344795,4548
1705453610124,449984,344799,4495
1705453610140,450008,344831,4498
1705453610155,450002,344863,4490
1705453610149,450046,344801,4490
1705453610165,450078,344794,4422
1705453610180,450087,344823,4498
1705453610196,450074,344854,4468
1705453610212,450024,344804,4430
1705453610227,450112,344752,4500
1705453610258,449903,344728,4494
1705453610274,449877,344703,4497
1705453610289,449857,344571,4494
1705453610305,449853,344567,4588
1705453610321,449820,344583,4494
1705453610336,449732,344451,4495
1705453610349,449677,344545,4496
1705453610365,449677,344517,4495
1705453610380,449720,344475,4453
1705453610396,449662,344492,4497
1705453610412,449675,344550,4498
1705453610427,449683,344470,4428
1705453610435,449724,344511,4496
1705453610451,449681,344498,4498
1705453610466,449661,344476,4428
1705453610482,449663,344448,4494
1705453610498,449707,344448,4497
1705453610513,449828,344425,4497
1705453610540,449631,344417,4485
1705453610556,449617,344394,4521
1705453610571,449699,344434,4497
1705453610587,449638,344416,4541
1705453610603,449592,344409,4521
1705453610618,449639,344477,4496
1705453610637,449681,344423,4511
1705453610653,449669,344451,4497
1705453610668,449672,344524,4526
1705453610684,449687,344475,4507
1705453610700,449670,344511,4497
1705453610715,449737,344513,4460
1705453610724,449779,344464,4496
1705453610740,449826,344492,4494
1705453610755,449813,344477,4477
1705453610771,449838,344498,4497
1705453610787,449870,344516,4557
1705453610802,449841,344541,4525
1705453610811,449839,344481,4501
1705453610827,449908,344523,4545
1705453610842,449887,344552,4498
1705453610858,449895,344523,4516
1705453610874,449923,344569,4494
1705453610889,449798,344648,4500
1705453610917,449979,344546,4439
1705453610933,449963,344617,4515
1705453610948,449981,344627,4523
1705453610964,449944,344598,4510
1705453610980,450108,344615,4501
1705453610995,450019,344653,4501
1705453611008,450056,344720,4489
1705453611024,450094,344577,4496
1705453611039,450099,344713,4565
1705453611055,450117,344681,4474
1705453611071,450109,344622,4518
1705453611086,450056,344608,4569
1705453611108,449937,344542,4478
1705453611124,449837,344534,4495
1705453611139,449743,344477,4507
1705453611155,449802,344484,4524
1705453611171,449712,344451,4429
1705453611186,449717,344421,4497
1705453611188,449705,344387,4503
1705453611204,449757,344366,4432
1705453611219,449757,344332,4492
1705453611235,449621,344383,4469
1705453611251,449696,344373,4496
1705453611266,449654,344287,4496
1705453611290,449675,344346,4495
1705453611306,449705,344349,4511
1705453611321,449683,344321,4539
1705453611337,449621,344355,4497
1705453611353,449688,344383,4497
1705453611368,449667,344330,4480
1705453611379,449652,344348,4513
1705453611395,449698,344368,4492
1705453611410,449630,344360,4506
1705453611426,449717,344382,4507
1705453611442,449666,344355,4429
1705453611457,449703,344321,4495
1705453611474,449690,344409,4526
1705453611490,449681,344384,4484
1705453611505,449755,344273,4500
1705453611521,449759,344374,4547
1705453611537,449755,344401,4538
1705453611552,449766,344348,4511
1705453611563,449741,344451,4498
1705453611579,449751,344437,4489
1705453611594,449797,344488,4529
1705453611610,449851,344434,4499
1705453611626,449763,344467,4498
1705453611641,449897,344472,4432
1705453611666,449809,344461,4545
1705453611682,449947,344565,4480
1705453611697,449946,344513,4487
1705453611713,449986,344510,4503
1705453611729,449971,344542,4465
1705453611744,450020,344551,4506
1705453611755,449957,344553,4501
1705453611771,449973,344578,4568
1705453611786,450068,344550,4498
1705453611802,450007,344604,4516
1705453611818,450018,344596,4537
1705453611833,450023,344634,4503
1705453611849,450070,344625,4532
1705453611865,450114,344653,4503
1705453611880,450165,344646,4525
1705453611896,450099,344687,4473
1705453611912,450023,344587,4502
1705453611927,450047,344567,4449
1705453611937,450000,344572,4501
1705453611953,450005,344432,4481
1705453611968,449905,344471,4483
1705453611984,449897,344415,4498
1705453612000,449834,344305,4499
1705453612015,449804,344368,4546
1705453612026,449810,344313,4495
1705453612042,449792,344383,4579
1705453612057,449731,344304,4501
1705453612073,449726,344337,4482
1705453612089,449735,344314,4477
1705453612104,449663,344391,4499
1705453612134,449791,344341,4446
1705453612150,449778,344303,4497
1705453612165,449720,344366,4469
1705453612181,449795,344338,4454
1705453612197,449841,344335,4501
1705453612212,449840,344309,4483
1705453612223,449770,344356,4496
1705453612239,449774,344221,4500
1705453612254,449786,344280,4545
1705453612270,449765,344331,4500
1705453612286,449803,344260,4503
1705453612301,449773,344292,4571
1705453612309,449832,344329,4509
1705453612325,449818,344374,4452
1705453612340,449793,344347,4523
1705453612356,449813,344419,4503
1705453612372,449860,344379,4431
1705453612387,449775,344387,4500
1705453612417,449936,344377,4504
1705453612433,449903,344404,4430
1705453612448,449970,344381,4502
1705453612464,450045,344429,4504
1705453612480,450067,344425,4506
1705453612495,450035,344388,4504
1705453612510,450041,344421,4474
1705453612526,450063,344417,4504
1705453612541,450075,344440,4509
1705453612557,450007,344445,4503
1705453612573,450128,344493,4504
1705453612588,450083,344529,4495
1705453612596,450095,344547,4503
1705453612612,450112,344606,4517
1705453612627,450180,344515,4432
1705453612643,450185,344597,4504
1705453612659,450188,344524,4455
1705453612674,450333,344589,4511
1705453612688,450214,344543,4504
1705453612704,450281,344583,4483
1705453612719,450253,344500,4502
1705453612735,450155,344491,4540
1705453612751,450125,344459,4531
1705453612766,450032,344362,4524
1705453612791,450040,344436,4537
1705453612807,449929,344389,4501
1705453612822,449902,344402,4499
1705453612838,449910,344311,4501
1705453612854,449845,344390,4499
1705453612869,449841,344357,4420
1705453612883,449873,344308,4537
1705453612899,449874,344395,4525
1705453612914,449913,344286,4434
1705453612930,449924,344287,4500
1705453612946,449880,344294,4505
1705453612961,449984,344317,4484
1705453612971,449900,344293,4505
1705453612987,449917,344314,4546
1705453613002,449945,344294,4500
1705453613018,449887,344259,4500
1705453613034,449875,344302,4558
1705453613049,449809,344338,4502
1705453613064,449888,344285,4478
1705453613080,449888,344296,4519
1705453613095,449863,344322,4531
1705453613111,449927,344362,4476
1705453613127,449845,344319,4502
1705453613142,449981,344345,4470
1705453613168,450025,344358,4501
1705453613184,450071,344286,4503
1705453613199,450011,344352,4484
1705453613215,450086,344402,4504
1705453613231,450006,344293,4501
1705453613246,450051,344394,4569
1705453613255,450068,344318,4548
1705453613271,450056,344419,4544
1705453613286,449988,344458,4502
1705453613302,450123,344436,4526
1705453613318,450112,344451,4495
1705453613333,450135,344488,4525
1705453613348,450175,344472,4477
1705453613364,450193,344466,4436
1705453613379,450115,344547,4514
1705453613395,450247,344559,4428
1705453613411,450257,344572,4503
1705453613426,450263,344521,4487
1705453613438,450252,344494,4513
1705453613454,450324,344499,4501
1705453613469,450283,344564,4535
1705453613485,450375,344553,4500
1705453613501,450272,344523,4503
1705453613516,450215,344500,4556
1705453613526,450251,344424,4501
1705453613542,450155,344449,4502
1705453613557,450109,344426,4455
1705453613573,450047,344449,4497
1705453613589,450083,344365,4452
1705453613604,449989,344350,4503
1705453613634,450050,344387,4513
1705453613650,450074,344318,4437
1705453613665,450057,344340,4504
1705453613681,450077,344350,4482
1705453613697,450116,344387,4506
1705453613712,450078,344295,4504
1705453613723,450118,344363,4504
1705453613739,450188,344347,4528
1705453613754,450089,344313,4515
1705453613770,450094,344358,4501
1705453613786,450009,344356,4532
1705453613801,450027,344355,4503
1705453613810,450042,344305,4520
1705453613826,450062,344383,4505
1705453613841,450116,344334,4492
1705453613857,450059,344402,4509
1705453613873,450120,344369,4430
1705453613888,450144,344357,4489
1705453613900,450134,344352,4495
1705453613916,450130,344394,4486
1705453613931,450216,344362,4501
1705453613947,450165,344389,4534
1705453613963,450198,344403,4549
1705453613978,450203,344332,4503
1705453614008,450259,344447,4541
1705453614024,450216,344409,4490
1705453614039,450287,344449,4528
1705453614055,450241,344441,4541
1705453614071,450176,344525,4500
1705453614086,450259,344485,4476
1705453614098,450293,344472,4487
1705453614114,450224,344549,4472
1705453614129,450285,344510,4492
1705453614145,450282,344511,4502
1705453614161,450353,344463,4480
1705453614176,450421,344560,4477
1705453614184,450343,344559,4503
1705453614200,450420,344565,4561
1705453614215,450430,344513,4504
1705453614231,450368,344473,4497
1705453614247,450269,344460,4572
1705453614262,450209,344435,4505
1705453614292,450215,344417,4476
1705453614308,450144,344398,4525
1705453614323,450091,344448,4505
1705453614339,450102,344377,4406
1705453614355,450010,344312,4502
1705453614370,450147,344364,4526
1705453614383,450121,344341,4521
1705453614399,450235,344298,4499
1705453614414,450196,344392,4493
1705453614430,450204,344337,4500
1705453614446,450151,344271,4485
1705453614461,450158,344350,4567
1705453614470,450136,344315,4502
1705453614486,450120,344338,4534
1705453614501,450103,344339,4527
1705453614517,450178,344374,4520
1705453614533,450148,344316,4496
1705453614548,450018,344349,4500
1705453614563,450156,344354,4535
1705453614579,450206,344377,4431
1705453614594,450070,344411,4483
1705453614610,450220,344329,4456
1705453614626,450241,344399,4509
1705453614641,450225,344328,4499
1705453614666,450226,344373,4500
1705453614682,450307,344406,4500
1705453614697,450261,344309,4549
1705453614713,450302,344389,4501
1705453614729,450294,344332,4502
1705453614744,450290,344427,4572
1705453614759,450340,344426,4494
1705453614775,450362,344490,4523
1705453614790,450321,344467,4492
1705453614806,450362,344541,4505
1705453614822,450377,344498,4422
1705453614837,450324,344480,4517
1705453614844,450366,344507,4514
1705453614860,450437,344505,4433
1705453614875,450526,344473,4503
1705453614891,450424,344499,4516
1705453614907,450511,344544,4509
1705453614922,450367,344429,4499
1705453614938,450355,344471,4521
1705453614954,450359,344407,4501
1705453614969,450247,344262,4499
1705453614985,450207,344328,4519
1705453615001,450164,344349,4499
1705453615016,450096,344387,4469
1705453615040,450184,344301,4499
1705453615056,450145,344368,4499
1705453615071,450183,344254,4428
1705453615087,450024,344289,4502
1705453615103,450125,344341,4496
1705453615118,450172,344331,4437
1705453615131,450148,344302,4453
1705453615147,450152,344311,4480
1705453615162,450179,344308,4500
1705453615178,450114,344273,4502
1705453615194,450153,344289,4564
1705453615209,450239,344186,4503
1705453615228,450162,344225,4532
1705453615244,450064,344297,4530
1705453615259,450199,344267,4499
1705453615275,450173,344254,4501
1705453615291,450172,344339,4502
1705453615306,450143,344297,4487
1705453615313,450200,344251,4514
1705453615329,450141,344343,4509
1705453615344,450183,344267,4442
1705453615360,450202,344344,4494
1705453615376,450233,344269,4500
1705453615391,450231,344320,4481
1705453615400,450253,344258,4494
1705453615416,450257,344321,4512
1705453615431,450302,344333,4537
1705453615447,450293,344322,4481
1705453615463,450337,344334,4557
1705453615478,450226,344369,4501
1705453615509,450249,344363,4481
1705453615525,450251,344420,4475
1705453615540,450265,344523,4496
1705453615556,450333,344442,4442
1705453615572,450286,344389,4501
1705453615587,450341,344526,4471
1705453615600,450343,344431,4498
1705453615616,450326,344331,4498
1705453615631,450280,344332,4463
1705453615647,450278,344248,4498
1705453615663,450143,344157,4499
1705453615678,450162,344241,4562
1705453615690,450074,344204,4496
1705453615706,450054,344118,4497
1705453615721,450015,344193,4517
1705453615737,450012,344181,4497
1705453615753,449954,344191,4520
1705453615768,449965,344128,4498
1705453615791,449991,344117,4492
1705453615807,450076,344146,4428
1705453615822,450012,344193,4497
1705453615838,450065,344186,4409
1705453615854,450073,344184,4482
1705453615869,450006,344106,4479
1705453615883,450042,344173,4500
1705453615899,450074,344108,4497
1705453615914,449989,344040,4513
1705453615930,450053,344102,4501
1705453615946,450066,344045,4497
1705453615961,450022,344111,4576
1705453615973,450018,344121,4474
1705453615989,449993,344209,4497
1705453616004,449976,344121,4466
1705453616020,449931,344170,4498
1705453616036,450004,344152,4421
1705453616051,450014,344177,4496
1705453616059,450046,344189,4498
1705453616075,450035,344148,4426
1705453616090,450140,344172,4499
1705453616106,450097,344141,4514
1705453616122,450067,344165,4475
1705453616137,450193,344063,4496
1705453616179,450110,344200,4509
1705453616195,450168,344237,4527
1705453616210,450091,344205,4496
1705453616226,450168,344254,4538
1705453616242,450160,344248,4498
1705453616257,450120,344247,4450
1705453616258,450159,344268,4494
1705453616274,450127,344290,4499
1705453616289,450196,344230,4430
1705453616305,449988,344187,4516
1705453616321,450056,344231,4521
1705453616336,450053,344105,4443
1705453616345,449968,344052,4498
1705453616361,449965,344062,4492
1705453616376,449969,344020,4501
1705453616392,449834,343952,4480
1705453616408,449856,343988,4561
1705453616423,449871,343943,4496
1705453616438,449826,343931,4483
1705453616454,449724,343974,4521
1705453616469,449824,344002,4497
1705453616485,449840,343928,4489
1705453616501,449781,343970,4494
1705453616516,449844,344006,4493
1705453616541,449780,343962,4493
1705453616557,449683,343970,4496
1705453616572,449760,343946,4480
1705453616588,449871,343928,4495
1705453616604,449801,343897,4474
1705453616619,449753,343895,4476
1705453616630,449784,343962,4455
1705453616646,449695,343873,4545
1705453616661,449771,343871,4524
1705453616677,449814,343803,4496
1705453616693,449810,343884,4564
1705453616708,449735,343911,4496
1705453616737,449843,343922,4463
1705453616753,449847,343965,4489
1705453616768,449752,343998,4498
1705453616784,449851,343926,4390
1705453616800,449780,343949,4509
1705453616815,449871,343931,4518
1705453616825,449867,343978,4493
1705453616841,449905,343975,4495
1705453616856,449915,343928,4469
1705453616872,449955,343987,4452
1705453616888,449933,343924,4491
1705453616903,449896,343985,4541
1705453616915,449902,343988,4506
1705453616931,449902,343879,4495
1705453616946,449985,344030,4563
1705453616962,449947,344105,4531
1705453616978,449938,344119,4464
1705453616993,449880,344058,4513
1705453617004,449925,344041,4507
1705453617020,449901,343984,4425
1705453617035,449704,343952,4495
1705453617051,449764,343917,4493
1705453617067,449754,343827,4426
1705453617082,449740,343832,4487
1705453617098,449666,343792,4469
1705453617114,449733,343797,4493
1705453617129,449595,343709,4513
1705453617145,449592,343741,4500
1705453617161,449686,343719,4491
1705453617176,449585,343713,4534
1705453617189,449609,343724,4491
1705453617205,449569,343754,4529
1705453617220,449628,343725,4483
1705453617236,449541,343784,4492
1705453617252,449647,343775,4530
1705453617267,449581,343719,4427
1705453617276,449583,343708,4494
1705453617292,449578,343684,4425
1705453617307,449626,343691,4496
1705453617323,449583,343687,4478
1705453617339,449606,343687,4470
1705453617354,449623,343703,4492
1705453617382,449525,343711,4504
1705453617398,449596,343732,4532
1705453617413,449558,343659,4492
1705453617429,449572,343742,4523
1705453617445,449560,343739,4492
1705453617460,449622,343751,4493
1705453617473,449614,343777,4493
1705453617489,449587,343836,4486
1705453617504,449640,343742,4424
1705453617520,449536,343785,4493
1705453617536,449624,343830,4460
1705453617551,449674,343803,4425
1705453617566,449738,343801,4500
1705453617582,449650,343812,4390
1705453617597,449778,343809,4496
1705453617613,449752,343796,4503
1705453617629,449752,343811,4539
1705453617644,449763,343887,4491
1705453617665,449745,343845,4494
1705453617681,449762,343892,4529
1705453617696,449730,343895,4491
1705453617712,449832,343897,4503
1705453617728,449852,343926,4493
1705453617743,449869,343995,4495
1705453617758,449896,343931,4515
1705453617774,449719,343962,4491
1705453617789,449768,343864,4423
1705453617805,449710,343799,4509
1705453617821,449634,343710,4492
1705453617836,449579,343749,4476
1705453617845,449590,343689,4476
1705453617861,449563,343613,4492
1705453617876,449501,343703,4534
1705453617892,449485,343586,4493
1705453617908,449505,343643,4570
1705453617923,449349,343616,4490
1705453617937,449478,343635,4491
1705453617953,449468,343627,4481
1705453617968,449454,343700,4492
1705453617984,449531,343653,4398
1705453618000,449430,343694,4488
1705453618015,449401,343731,4461
1705453618039,449444,343688,4477
1705453618055,449552,343637,4491
1705453618070,449472,343586,4479
1705453618086,449451,343656,4493
1705453618102,449508,343512,4491
1705453618117,449484,343599,4570
1705453618134,449501,343612,4490
1705453618150,449491,343527,4491
1705453618165,449450,343644,4559
1705453618181,449510,343627,4490
1705453618197,449464,343665,4454
1705453618212,449438,343690,4515
1705453618220,449489,343641,4493
1705453618236,449550,343644,4440
1705453618251,449515,343676,4492
1705453618267,449540,343706,4494
1705453618283,449588,343692,4458
1705453618298,449615,343711,4492
1705453618313,449608,343712,4500
1705453618329,449658,343726,4493
1705453618344,449644,343644,4477
1705453618360,449683,343806,4515
1705453618376,449733,343780,4493
1705453618391,449685,343788,4525
1705453618414,449627,343771,4494
1705453618430,449738,343826,4492
1705453618445,449779,343827,4476
1705453618461,449627,343821,4496
1705453618477,449801,343875,4522
1705453618492,449795,343802,4471
1705453618509,449834,343883,4483
1705453618525,449836,343892,4447
1705453618540,449868,343824,4503
1705453618556,449899,343849,4473
1705453618572,449852,343842,4474
1705453618587,449875,343787,4496
1705453618598,449699,343794,4555
1705453618614,449666,343732,4520
1705453618629,449606,343561,4491
1705453618645,449553,343630,4534
1705453618661,449473,343646,4491
1705453618676,449572,343655,4492
1705453618691,449584,343633,4490
1705453618707,449378,343681,4492
1705453618722,449503,343637,4424
1705453618738,449460,343596,4491
1705453618754,449526,343668,4514
1705453618769,449592,343614,4423
1705453618774,449539,343625,4499
1705453618790,449528,343616,4474
1705453618805,449562,343578,4472
1705453618821,449572,343477,4486
1705453618837,449447,343609,4547
1705453618852,449550,343585,4492
1705453618887,449556,343554,4490
1705453618903,449500,343594,4561
1705453618918,449469,343618,4490
1705453618934,449588,343591,4458
1705453618950,449479,343610,4512
1705453618965,449563,343649,4493
1705453618973,449543,343627,4491
1705453618989,449484,343645,4491
1705453619004,449580,343645,4458
1705453619020,449664,343611,4505
1705453619036,449641,343630,4489
1705453619051,449609,343667,4485
1705453619063,449650,343680,4496
1705453619079,449630,343614,4516
1705453619094,449656,343659,4558
1705453619110,449754,343683,4477
1705453619126,449744,343652,4531
1705453619141,449628,343774,4523
1705453619151,449744,343754,4495
1705453619167,449754,343744,4484
1705453619182,449648,343777,4496
1705453619198,449781,343778,4489
1705453619214,449827,343769,4427
1705453619229,449747,343801,4472
1705453619257,449871,343761,4443
1705453619273,449890,343830,4491
1705453619288,449848,343772,4474
1705453619304,449923,343835,4510
1705453619320,450066,343834,4494
1705453619335,449963,343816,4506
1705453619375,449978,343860,4517
1705453619391,449964,343817,4494
1705453619406,449974,343832,4565
1705453619422,449922,343828,4492
1705453619438,449855,343776,4492
1705453619453,449804,343751,4469
1705453619437,449699,343736,4484
1705453619453,449668,343700,4422
1705453619468,449574,343674,4515
1705453619484,449674,343637,4490
1705453619500,449666,343660,4423
1705453619515,449755,343615,4490
1705453619540,449619,343608,4476
1705453619556,449751,343577,4493
1705453619571,449730,343542,4516
1705453619587,449712,343636,4554
1705453619603,449778,343684,4490
1705453619618,449727,343596,4493
1705453619630,449721,343648,4501
1705453619646,449737,343671,4492
1705453619661,449736,343657,4489
1705453619677,449638,343588,4510
1705453619693,449713,343718,4480
1705453619708,449705,343630,4423
1705453619719,449721,343675,4493
1705453619735,449722,343663,4399
1705453619750,449793,343658,4475
1705453619766,449725,343695,4474
1705453619782,449798,343642,4473
1705453619797,449868,343718,4490
1705453619814,449776,343730,4479
1705453619830,449850,343741,4538
1705453619845,449918,343659,4493
1705453619861,449845,343785,4545
1705453619877,449810,343755,4492
1705453619892,449899,343816,4496
1705453619914,449902,343824,4488
1705453619930,449857,343862,4493
1705453619945,449926,343826,4421
1705453619961,449918,343850,4512
1705453619977,449942,343887,4469
1705453619992,449982,343920,4397
1705453620006,449921,343873,4492
1705453620022,450028,343829,4496
1705453620037,449975,343848,4474
1705453620053,450029,343792,4498
1705453620069,450080,343889,4573
1705453620084,450139,343935,4494
1705453620098,450055,343899,4473
1705453620114,450126,343933,4536
1705453620129,450092,343944,4493
1705453620145,450125,344003,4471
1705453620161,450143,343995,4471
1705453620176,450105,343967,4495
1705453620189,450134,343992,4500
1705453620205,449960,343888,4492
1705453620220,449978,343886,4516
1705453620236,449933,343828,4491
1705453620252,449932,343782,4491
1705453620267,449922,343801,4490
1705453620290,449882,343814,4490
1705453620306,449872,343713,4439
1705453620321,449882,343725,4558
1705453620337,449859,343793,4490
1705453620353,449904,343685,4510
1705453620368,449813,343793,4501
1705453620380,449900,343776,4470
1705453620396,449922,343778,4484
1705453620411,449809,343768,4490
1705453620427,449904,343781,4492
1705453620443,449942,343819,4489
1705453620458,449826,343867,4491
1705453620473,449895,343771,4460
1705453620489,449962,343778,4503
1705453620504,449905,343769,4470
1705453620520,449890,343816,4471
1705453620536,450007,343756,4492
1705453620551,450024,343739,4526
1705453620564,449961,343824,4494
1705453620580,449991,343735,4491
1705453620595,450008,343851,4563
1705453620611,449966,343840,4493
1705453620627,449933,343858,4513
1705453620642,450032,343905,4480
1705453620649,450019,343863,4490
1705453620665,450050,343909,4411
1705453620680,450015,343895,4506
1705453620696,450090,343909,4517
1705453620712,450214,343905,4439
1705453620727,450220,343872,4491
1705453620756,450104,343918,4510
1705453620772,450211,343958,4476
1705453620787,450204,343850,4489
1705453620803,450189,343945,4535
1705453620819,450309,343992,4496
1705453620834,450211,343918,4495
1705453620850,450283,344047,4507
1705453620866,450191,344029,4493
1705453620881,450272,344078,4465
1705453620897,450217,344065,4497
1705453620913,450279,344126,4519
1705453620928,450363,344063,4423
1705453620935,450354,344140,4493
1705453620951,450270,344106,4461
1705453620966,450260,344098,4431
1705453620982,450191,344001,4484
1705453620998,450132,343971,4480
1705453621013,450202,343950,4491
1705453621029,450095,343881,4487
1705453621045,450053,343849,4558
1705453621060,450070,343809,4489
1705453621076,450042,343841,4517
1705453621092,449970,343823,4516
1705453621107,450088,343854,4491
1705453621141,450029,343800,4503
1705453621157,449925,343915,4494
1705453621172,450064,343919,4517
1705453621188,450075,343912,4507
1705453621204,450050,343931,4500
1705453621219,450040,343912,4464
1705453621224,450084,343840,4470
1705453621240,450084,343883,4465
1705453621255,450065,343840,4473
1705453621271,450092,343826,4488
1705453621287,450055,343838,4473
1705453621302,450162,343855,4529
1705453621315,450005,343850,4491
1705453621331,450072,343896,4557
1705453621346,450035,343903,4461
1705453621362,450160,343903,4531
1705453621378,450090,343875,4468
1705453621393,450073,343951,4489
1705453621416,450166,343935,4489
1705453621432,450039,343900,4490
1705453621447,450160,344019,4460
1705453621463,450197,343989,4488
1705453621479,450273,343910,4490
1705453621494,450245,344022,4456
1705453621506,450299,344014,4452
1705453621522,450260,343932,4499
1705453621537,450300,343973,4536
1705453621553,450332,344007,4507
1705453621569,450246,343953,4491
1705453621584,450330,344056,4528
1705453621597,450342,344035,4492
1705453621613,450344,344049,4486
1705453621628,450317,344026,4493
1705453621644,450372,344053,4516
1705453621660,450387,344081,4418
1705453621675,450364,344179,4492
1705453621689,450402,344106,4466
1705453621705,450382,344119,4470
1705453621720,450415,344068,4470
1705453621736,450344,344040,4483
1705453621752,450361,343997,4493
1705453621767,450230,343930,4491
1705453621791,450167,343912,4510
1705453621807,450140,343847,4486
1705453621822,450086,343908,4566
1705453621838,450153,343921,4499
1705453621854,450062,343903,4489
1705453621869,450087,343852,4480
1705453621879,450187,343956,4489
1705453621895,450130,343828,4413
1705453621910,449989,343908,4484
1705453621926,450093,343917,4492
1705453621942,450121,343880,4421
1705453621957,450201,343892,4488
1705453621973,450094,343911,4504
1705453621989,450092,343821,4468
1705453622004,450105,343791,4488
1705453622020,450144,343806,4522
1705453622036,450181,343839,4490
1705453622051,450135,343770,4488
1705453622063,450062,343846,4487
1705453622079,450046,343839,4486
1705453622094,450080,343875,4451
1705453622110,450085,343847,4487
1705453622126,450099,343920,4489
1705453622141,450147,343901,4417
1705453622151,450152,343883,4461
1705453622167,450175,343943,4516
1705453622182,450138,343885,4420
1705453622198,450165,343844,4480
1705453622214,450151,343947,4485
1705453622229,450316,343935,4489
1705453622264,450200,343924,4455
1705453622280,450296,343939,4536
1705453622295,450291,343945,4492
1705453622311,450248,343960,4527
1705453622327,450206,343958,4490
1705453622342,450256,344022,4492
1705453622361,450257,344043,4484
1705453622377,450306,344017,4489
1705453622392,450341,344051,4519
1705453622408,450403,343988,4498
1705453622424,450326,344118,4489
1705453622439,450415,344064,4442
1705453622439,450426,344051,4489
1705453622455,450396,344004,4489
1705453622470,450317,344012,4473
1705453622486,450269,343944,4490
1705453622502,450205,343875,4547
1705453622517,450248,343857,4514
1705453622526,450053,343844,4471
1705453622542,450092,343859,4556
1705453622557,449943,343812,4487
1705453622573,450057,343790,4483
1705453622589,450011,343767,4499
1705453622604,449947,343843,4485
1705453622632,450029,343823,4425
1705453622648,450004,343760,4499
1705453622663,450013,343851,4510
1705453622679,450019,343772,4472
1705453622695,450127,343735,4487
1705453622710,449990,343705,4466
1705453622723,449984,343749,4485
1705453622739,449967,343646,4486
1705453622754,450086,343721,4553
1705453622770,450035,343662,4468
1705453622786,449996,343620,4486
1705453622801,449980,343697,4557
1705453622810,450063,343716,4477
1705453622826,449982,343767,4454
1705453622841,449966,343704,4508
1705453622857,450038,343735,4514
1705453622873,450011,343748,4474
1705453622888,449945,343754,4487
1705453622918,450002,343754,4494
1705453622934,450093,343760,4422
1705453622949,450037,343741,4480
1705453622965,450035,343784,4466
1705453622981,450144,343750,4486
1705453622996,450111,343703,4510
1705453623008,450046,343793,4490
1705453623024,450167,343779,4487
1705453623039,450165,343837,4532
1705453623055,450023,343828,4483
1705453623071,450156,343870,4486
1705453623086,450148,343833,4466
1705453623094,450151,343888,4486
1705453623110,450242,343844,4483
1705453623125,450194,343833,4424
1705453623141,450252,343952,4498
1705453623157,450185,343858,4468
1705453623172,450328,343846,4490
1705453623191,450230,343864,4487
1705453623207,450090,343829,4472
1705453623222,450151,343683,4488
1705453623238,450061,343736,4513
1705453623254,450083,343670,4526
1705453623269,450034,343569,4505
1705453623292,449937,343591,4494
1705453623308,449850,343606,4484
1705453623323,449932,343585,4482
1705453623339,449864,343546,4484
1705453623355,449871,343583,4481
1705453623370,449894,343516,4417
1705453623383,449740,343521,4503
1705453623399,449892,343536,4454
1705453623414,449893,343530,4417
1705453623430,449954,343481,4496
1705453623446,449894,343455,4458
1705453623461,449900,343460,4489
1705453623486,449882,343474,4489
1705453623502,449857,343456,4540
1705453623517,449910,343445,4489
1705453623533,449814,343403,4514
1705453623549,449850,343426,4498
1705453623564,449811,343454,4486
1705453623565,449843,343472,4515
1705453623581,449709,343431,4485
1705453623596,449836,343525,4485
1705453623612,449826,343467,4473
1705453623628,449740,343503,4485
1705453623643,449848,343481,4413
1705453623665,449840,343475,4454
1705453623681,449859,343490,4464
1705453623696,449892,343473,4475
1705453623712,449883,343461,4484
1705453623728,449934,343379,4473
1705453623743,449905,343486,4514
1705453623755,450020,343438,4508
1705453623771,449996,343497,4564
1705453623786,450000,343463,4487
1705453623802,450014,343515,4485
1705453623818,450046,343513,4473
1705453623833,449901,343548,4486
1705453623863,450057,343515,4474
1705453623879,449977,343538,4483
1705453623894,449977,343552,4436
1705453623910,450038,343481,4412
1705453623926,450109,343524,4489
1705453623941,450028,343460,4469
1705453623938,449977,343462,4484
1705453623954,449927,343352,4487
1705453623969,449876,343354,4566
1705453623985,449828,343368,4486
1705453624001,449802,343221,4484
1705453624016,449718,343310,4508
1705453624025,449685,343245,4474
1705453624041,449662,343288,4445
1705453624056,449700,343214,4467
1705453624072,449624,343234,4475
1705453624088,449671,343229,4413
1705453624103,449543,343208,4482
1705453624133,449585,343182,4482
1705453624149,449698,343198,4414
1705453624164,449724,343191,4486
1705453624180,449647,343171,4488
1705453624196,449735,343121,4482
1705453624211,449597,343105,4464
1705453624236,449625,343117,4457
1705453624252,449647,343128,4487
1705453624267,449614,343088,4489
1705453624283,449492,343111,4484
1705453624299,449618,343164,4485
1705453624314,449610,343161,4482
1705453624310,449586,343147,4483
1705453624326,449638,343183,4512
1705453624341,449614,343120,4414
1705453624357,449643,343214,4484
1705453624373,449629,343183,4448
1705453624388,449698,343212,4492
1705453624416,449694,343178,4460
1705453624432,449627,343203,4465
1705453624447,449797,343210,4486
1705453624463,449700,343204,4523
1705453624479,449706,343178,4492
1705453624494,449771,343109,4486
1705453624508,449711,343207,4518
1705453624524,449649,343243,4483
1705453624539,449762,343219,4486
1705453624555,449748,343254,4483
1705453624571,449630,343339,4485
1705453624586,449800,343270,4404
1705453624610,449759,343280,4486
1705453624626,449807,343305,4509
1705453624641,449845,343275,4420
1705453624657,449868,343262,4485
1705453624673,449847,343247,4485
1705453624688,449873,343248,4463
1705453624686,449712,343286,4466
1705453624702,449672,343121,4551
1705453624717,449668,343185,4481
1705453624733,449573,343116,4485
1705453624749,449503,343126,4522
1705453624764,449462,343105,4484
1705453624780,449533,343031,4459
1705453624796,449409,343061,4506
1705453624811,449482,343076,4531
1705453624827,449484,342995,4485
1705453624843,449343,343048,4484
1705453624858,449472,343055,4453
1705453624882,449508,343035,4504
1705453624898,449628,342982,4478
1705453624913,449488,343014,4464
1705453624929,449487,343003,4485
1705453624945,449475,342976,4472
1705453624960,449462,343023,4551
1705453624971,449469,342973,4481
1705453624987,449479,342962,4490
1705453625002,449413,342971,4482
1705453625018,449494,343023,4503
1705453625034,449451,342996,4451
1705453625049,449406,343011,4482
1705453625065,449498,342983,4486
1705453625081,449531,342986,4418
1705453625096,449454,343099,4499
1705453625112,449501,343019,4414
1705453625128,449611,343085,4485
1705453625143,449537,343022,4465
1705453625164,449488,343081,4488
1705453625180,449696,342988,4483
1705453625195,449561,343055,4514
1705453625211,449609,343079,4483
1705453625227,449566,342997,4483
1705453625242,449643,343132,4550
1705453625254,449583,343110,4477
1705453625270,449618,343169,4484
1705453625285,449604,343121,4463
1705453625301,449651,343198,4484
1705453625317,449662,343130,4466
1705453625332,449506,343229,4484
1705453625349,449707,343183,4486
1705453625365,449700,343210,4416
1705453625380,449756,343196,4485
1705453625396,449706,343199,4482
1705453625412,449792,343194,4488
1705453625427,449813,343128,4510
1705453625439,449722,343228,4473
1705453625455,449772,343186,4484
1705453625470,449604,343001,4486
1705453625486,449554,343070,4480
1705453625502,449441,343111,4483
1705453625517,449503,343047,4479
1705453625556,449426,343046,4500
1705453625572,449472,343066,4483
1705453625587,449423,342988,4426
1705453625603,449446,343003,4495
1705453625619,449453,343021,4535
1705453625634,449511,343012,4434
1705453625631,449371,342983,4436
1705453625647,449468,342961,4463
1705453625662,449519,343019,4507
1705453625678,449447,342943,4497
1705453625694,449478,343011,4526
1705453625709,449604,342902,4482
1705453625736,449401,342940,4486
1705453625752,449431,342994,4483
1705453625767,449403,342968,4484
1705453625783,449430,342977,4507
1705453625799,449321,343053,4483
1705453625814,449445,343031,4454
1705453625827,449433,342991,4482
1705453625843,449453,343082,4450
1705453625858,449484,342986,4439
1705453625874,449522,343049,4479
1705453625890,449498,343028,4466
1705453625905,449541,343056,4463
1705453625900,449594,343030,4482
1705453625916,449545,343092,4564
1705453625931,449649,343078,4482
1705453625947,449599,343041,4466
1705453625963,449603,343089,4553
1705453625978,449566,343181,4484
1705453626007,449641,343164,4409
1705453626023,449650,343156,4506
1705453626038,449637,343236,4483
1705453626054,449682,343170,4469
1705453626070,449566,343182,4483
1705453626085,449713,343257,4508
1705453626109,449752,343204,4481
1705453626125,449853,343161,4485
1705453626140,449820,343227,4485
1705453626156,449902,343240,4485
1705453626172,449787,343191,4469
1705453626187,449895,343224,4518
1705453626186,449823,343239,4484
1705453626202,449811,343191,4514
1705453626217,449720,343194,4511
1705453626233,449717,343140,4488
1705453626249,449676,343128,4475
1705453626264,449560,343096,4482
1705453626289,449602,343091,4492
1705453626305,449632,343047,4413
1705453626320,449491,343044,4487
1705453626336,449600,342993,4435
1705453626352,449608,342957,4489
1705453626367,449557,342967,4463
1705453626381,449571,342961,4456
1705453626397,449634,342984,4486
1705453626412,449486,342919,4526
1705453626428,449472,342988,4507
1705453626444,449507,342879,4481
1705453626459,449444,342984,4510
1705453626474,449415,342993,4483
1705453626490,449323,342971,4482
1705453626505,449362,343005,4472
1705453626521,449379,342992,4481
1705453626537,449357,343044,4401
1705453626552,449276,342988,4496
1705453626561,449352,342997,4475
1705453626577,449406,343025,4415
1705453626592,449462,342974,4483
1705453626608,449444,343031,4467
1705453626624,449500,342993,4464
1705453626639,449558,342975,4480
1705453626654,449492,343062,4458
1705453626670,449592,343039,4481
1705453626685,449514,342974,4484
1705453626701,449476,343070,4449
1705453626717,449565,343083,4483
1705453626732,449585,343151,4459
1705453626758,449625,343075,4478
1705453626774,449691,343176,4512
1705453626789,449692,343116,4414
1705453626805,449650,343170,4484
1705453626821,449716,343255,4448
1705453626836,449769,343174,4419
1705453626845,449793,343228,4435
1705453626861,449755,343248,4480
1705453626876,449832,343268,4485
1705453626892,449813,343247,4486
1705453626908,449802,343252,4531
1705453626923,449951,343143,4488
1705453626947,449855,343203,4496
1705453626963,449750,343164,4514
1705453626978,449752,343155,4481
1705453626994,449697,343077,4510
1705453627010,449599,343056,4485
1705453627025,449640,343062,4489
1705453627029,449653,343013,4483
1705453627045,449589,343045,4495
1705453627060,449691,342948,4416
1705453627076,449712,342997,4485
1705453627092,449670,342892,4485
1705453627107,449718,342925,4469
1705453627130,449718,342838,4486
1705453627146,449675,342908,4518
1705453627161,449862,342902,4527
1705453627177,449841,342863,4485
1705453627193,449753,342926,4540
1705453627208,449760,342907,4487
1705453627222,449882,342915,4486
1705453627238,449766,342910,4511
1705453627253,449744,342974,4483
1705453627269,449863,342868,4435
1705453627285,449864,342931,4488
1705453627300,449828,342973,4457
1705453627310,449904,342892,4488
1705453627326,450035,342828,4491
1705453627341,449974,342941,4460
1705453627357,450012,342946,4489
1705453627373,449988,342882,4490
1705453627388,449952,342949,4556
1705453627400,449892,342916,4488
1705453627416,449792,342974,4500
1705453627431,449793,343100,4522
1705453627447,449747,343246,4487
1705453627463,449620,343308,4454
1705453627478,449578,343320,4484
1705453627509,449558,343349,4481
1705453627525,449654,343396,4414
1705453627540,449711,343479,4485
1705453627556,449763,343492,4397
1705453627572,449900,343481,4470
1705453627587,449875,343502,4455
1705453627625,449898,343525,4490
1705453627641,449965,343531,4487
1705453627656,449916,343498,4486
1705453627672,449852,343532,4486
1705453627688,449834,343520,4478
1705453627703,449718,343581,4562
1705453627688,449620,343477,4486
1705453627704,449619,343414,4486
1705453627719,449565,343433,4465
1705453627735,449620,343466,4482
1705453627751,449610,343348,4409
1705453627766,449559,343341,4483
1705453627775,449645,343303,4503
1705453627791,449659,343266,4434
1705453627806,449751,343308,4487
1705453627822,449692,343253,4470
1705453627838,449765,343252,4462
1705453627853,449775,343177,4488
1705453627883,449781,343308,4519
1705453627899,449865,343253,4490
1705453627914,449823,343226,4522
1705453627930,449845,343288,4522
1705453627946,449811,343289,4490
1705453627961,449820,343325,4455
1705453627974,449833,343287,4500
1705453627990,449912,343346,4491
1705453628005,449947,343311,4420
1705453628021,449909,343235,4510
1705453628037,449990,343327,4515
1705453628052,449978,343243,4482
1705453628059,449983,343229,4492
1705453628075,450006,343265,4491
1705453628090,450143,343221,4495
1705453628106,449931,343179,4476
1705453628122,450072,343181,4541
1705453628137,450154,343235,4492
1705453628164,450137,343269,4465
1705453628180,450068,343214,4519
1705453628195,450195,343234,4495
1705453628211,450201,343222,4504
1705453628227,450169,343227,4492
1705453628242,450349,343253,4525
1705453628256,450392,343225,4515
1705453628272,450354,343234,4495
1705453628287,450404,343202,4442
1705453628303,450552,343169,4517
1705453628319,450419,343077,4478
1705453628334,450371,343030,4479
1705453628375,450320,342933,4476
1705453628391,450250,342904,4542
1705453628406,450192,342880,4520
1705453628422,450068,342758,4493
1705453628438,450054,342837,4566
1705453628453,449940,342836,4494
1705453628450,449982,342804,4491
1705453628466,449986,342749,4480
1705453628481,449907,342830,4493
1705453628497,449946,342791,4432
1705453628513,449858,342783,4507
1705453628528,449984,342894,4514
1705453628531,449910,342844,4494
1705453628547,450070,342840,4491
1705453628562,450012,342920,4473
1705453628578,449960,342912,4452
1705453628594,450030,342733,4487
1705453628609,450058,342935,4536
1705453628633,450117,343081,4498
1705453628649,450145,343130,4491
1705453628664,450100,343106,4566
1705453628680,450169,343086,4495
1705453628696,450190,343018,4463
1705453628711,450143,342957,4515
1705453628720,450196,342970,4486
1705453628736,450116,343040,4426
1705453628751,449936,343166,4493
1705453628767,450013,343195,4489
1705453628783,450152,343161,4426
1705453628798,450090,343203,4485
1705453628815,450196,343216,4468
1705453628831,450308,343186,4494
1705453628846,450284,343094,4516
1705453628862,450339,343186,4496
1705453628878,450402,343117,4494
1705453628893,450430,343126,4494
1705453628904,450415,343192,4519
1705453628920,450559,343284,4497
1705453628935,450527,343223,4488
1705453628951,450542,343240,4497
1705453628967,450572,343216,4493
1705453628982,450548,343094,4430
1705453629005,450481,343011,4467
1705453629021,450524,342932,4430
1705453629036,450443,342934,4496
1705453629052,450335,342857,4497
1705453629068,450356,342907,4479
1705453629083,450323,342820,4498
1705453629111,450166,342874,4502
1705453629127,450253,342903,4534
1705453629142,450084,342851,4504
1705453629158,450091,342870,4520
1705453629174,450067,342902,4492
1705453629189,450065,342915,4494
1705453629186,450068,342909,4491
1705453629202,450218,343254,4492
1705453629217,450293,343332,4425
1705453629233,450090,343157,4494
1705453629249,450232,343046,4467
1705453629264,450301,342960,4424
1705453629277,450376,343153,4495
1705453629293,450406,343261,4482
1705453629308,450420,343233,4499
1705453629324,450375,343168,4494
1705453629340,450433,343226,4560
1705453629355,450417,343252,4496
1705453629383,450401,343200,4475
1705453629399,450342,343211,4518
1705453629414,450337,343201,4495
1705453629430,450410,343146,4504
1705453629446,450430,343159,4496
1705453629461,450421,343269,4496
1705453629487,450485,343151,4460
1705453629503,450383,343220,4495
1705453629518,450540,343196,4422
1705453629534,450491,343157,4496
1705453629550,450547,343157,4476
1705453629565,450544,343221,4479
1705453629561,450564,343167,4519
1705453629577,450502,343088,4472
1705453629592,450486,343130,4539
1705453629608,450404,342962,4493
1705453629624,450244,343034,4547
1705453629639,450123,343040,4492
1705453629666,450024,343029,4509
1705453629682,450010,342964,4480
1705453629697,449911,342980,4490
1705453629713,450093,343085,4398
1705453629729,450198,343528,4489
1705453629744,450163,343377,4463
1705453629758,450225,343293,4509
1705453629774,450310,343380,4494
1705453629789,450256,343256,4477
1705453629805,450365,343290,4512
1705453629821,450402,343279,4493
1705453629836,450436,343433,4623
1705453629863,450467,343460,4473
1705453629879,450483,343377,4512
1705453629894,450470,343325,4564
1705453629910,450478,343326,4494
1705453629926,450401,343385,4454
1705453629941,450323,343340,4502
1705453629966,450380,343277,4494
1705453629982,450371,343291,4473
1705453629997,450321,343208,4494
1705453630013,450465,343268,4495
1705453630029,450629,343274,4428
1705453630044,450703,343205,4498
1705453630029,450764,343204,4492
1705453630045,450913,343213,4499
1705453630060,450806,343112,4487
1705453630076,450946,343197,4535
1705453630092,451078,343189,4504
1705453630107,451085,343188,4538
1705453630147,451051,343204,4524
1705453630163,451126,343221,4522
1705453630178,451176,343220,4498
1705453630194,451152,343238,4506
1705453630210,451252,343347,4532
1705453630225,451232,343257,4459
1705453630221,451185,343218,4460
1705453630237,451199,343284,4458
1705453630252,451284,343163,4513
1705453630268,451325,343310,4506
1705453630284,451308,343532,4484
1705453630299,451246,343364,4504
1705453630313,451070,343107,4516
1705453630329,450955,342958,4530
1705453630344,450967,342866,4503
1705453630360,451010,342996,4545
1705453630376,450911,343082,4482
1705453630391,451011,343066,4515
1705453630418,450944,343022,4518
1705453630434,450873,343134,4503
1705453630449,450952,343039,4424
1705453630465,450850,343074,4488
1705453630481,450912,343106,4526
1705453630496,450871,343034,4451
1705453630491,450899,343052,4500
1705453630507,450925,343081,4483
1705453630522,450970,343063,4488
1705453630538,450976,343027,4509
1705453630554,451011,343061,4571
1705453630569,451155,343039,4505
1705453630598,451123,343005,4507
1705453630614,451159,343020,4573
1705453630629,451107,342957,4504
1705453630645,451251,342968,4472
1705453630661,451148,343051,4525
1705453630676,451292,343123,4502
1705453630690,451205,343072,4505
1705453630706,451097,343131,4503
1705453630721,451140,343170,4470
1705453630737,451206,343178,4501
1705453630753,451125,343175,4496
1705453630768,451114,343209,4497
1705453630806,451086,343228,4498
1705453630822,451075,343136,4525
1705453630837,451058,343354,4544
1705453630853,451183,343574,4503
1705453630869,451090,343616,4539
1705453630884,451037,343731,4529
1705453630881,451015,343733,4498
1705453630897,450915,343615,4510
1705453630912,450803,343631,4497
1705453630928,450840,343603,4493
1705453630944,450802,343565,4411
1705453630959,450730,343626,4507
1705453630974,450774,343534,4459
1705453630990,450847,343429,4497
1705453631005,450787,343350,4476
1705453631021,450778,343328,4500
1705453631037,450844,343246,4499
1705453631052,450747,343279,4503
1705453631064,450686,343275,4498
1705453631080,450861,343207,4498
1705453631095,450872,343291,4566
1705453631111,450837,343339,4496
1705453631127,450831,343416,4497
1705453631142,450790,343326,4474
1705453631151,450825,343366,4500
1705453631167,450822,343405,4431
1705453631182,450730,343324,4499
1705453631198,450748,343376,4486
1705453631214,450865,343386,4428
1705453631229,450934,343359,4498
1705453631259,450890,343382,4528
1705453631275,450950,343452,4501
1705453631290,450876,343426,4520
1705453631306,450907,343463,4531
1705453631322,450984,343500,4497
1705453631337,450919,343402,4499
1705453631362,450903,343496,4518
1705453631378,450898,343548,4496
1705453631393,450974,343615,4496
1705453631409,451049,343820,4497
1705453631425,451109,344059,4499
1705453631440,451108,343880,4429
1705453631436,451052,343844,4469
1705453631452,451088,343674,4425
1705453631467,451077,343687,4485
1705453631483,451116,343739,4481
1705453631499,451050,343732,4469
1705453631514,451136,343662,4498
1705453631541,450937,343602,4531
1705453631557,450828,343612,4520
1705453631572,450858,343480,4498
1705453631588,450793,343477,4565
1705453631604,450736,343462,4496
1705453631619,450758,343452,4497
1705453631632,450756,343454,4496
1705453631648,450674,343508,4498
1705453631663,450785,343408,4421
1705453631679,450793,343428,4516
1705453631695,450850,343476,4464
1705453631710,450881,343443,4432
1705453631721,450897,343403,4497
1705453631737,450925,343391,4484
1705453631752,450943,343431,4480
1705453631768,450989,343320,4499
1705453631784,450981,343380,4579
1705453631799,451059,343399,4519
1705453631815,451045,343428,4497
1705453631831,451056,343437,4571
1705453631846,451058,343480,4500
1705453631862,451154,343470,4475
1705453631878,451226,343463,4526
1705453631893,451229,343562,4503
1705453631917,451316,343469,4504
1705453631933,451266,343495,4503
1705453631948,451348,343698,4529
1705453631964,451360,343612,4509
1705453631980,451385,343632,4503
1705453631995,451373,343695,4505
1705453632020,451417,343717,4500
1705453632036,451521,343706,4474
1705453632051,451671,344058,4571
1705453632067,451703,344135,4526
1705453632083,451716,344015,4522
1705453632098,451576,343946,4530
1705453632096,451551,343874,4504
1705453632112,451618,343798,4485
1705453632127,451458,343686,4505
1705453632143,451553,343566,4503
1705453632159,451551,343576,4435
1705453632174,451500,343608,4505
1705453632202,451544,343521,4517
1705453632218,451659,343465,4514
1705453632233,451544,343408,4484
1705453632249,451609,343376,4484
1705453632265,451610,343359,4513
1705453632280,451564,343322,4561
1705453632291,451503,343412,4477
1705453632307,451529,343377,4520
1705453632322,451599,343393,4575
1705453632338,451544,343393,4502
1705453632354,451616,343378,4532
1705453632369,451658,343395,4507
1705453632365,451706,343465,4507
1705453632381,451697,343450,4426
1705453632396,451682,343401,4523
1705453632412,451845,343457,4503
1705453632428,451852,343385,4454
1705453632443,451990,343411,4511
1705453632475,451892,343414,4510
1705453632491,452003,343500,4495
1705453632506,452042,343398,4507
1705453632522,451985,343540,4553
1705453632538,452042,343549,4509
1705453632553,452044,343483,4528
1705453632564,451995,343622,4512
1705453632580,451959,343661,4509
1705453632595,452082,343569,4477
1705453632611,451959,343647,4508
1705453632627,452151,343667,4558
1705453632642,452229,343703,4432
1705453632651,452273,344015,4509
1705453632667,452255,344129,4475
1705453632682,452217,344021,4495
1705453632698,452085,343875,4536
1705453632714,451973,343738,4491
1705453632729,452024,343685,4508
1705453632757,452020,343654,4492
1705453632773,451993,343659,4552
1705453632788,451987,343608,4507
1705453632804,451939,343645,4543
1705453632820,451866,343603,4534
1705453632835,451907,343605,4507
1705453632850,451795,343543,4527
1705453632866,451733,343526,4506
1705453632881,451799,343539,4514
1705453632897,451834,343488,4506
1705453632913,451762,343548,4517
1705453632928,451866,343439,4452
1705453632939,451899,343499,4504
1705453632955,451919,343441,4482
1705453632970,451885,343479,4484
1705453632986,451840,343467,4483
1705453633002,451824,343511,4520
1705453633017,451853,343529,4542
1705453633026,451875,343532,4494
1705453633042,451815,343607,4575
1705453633057,451698,343510,4506
1705453633073,451766,343551,4520
1705453633089,451730,343570,4481
1705453633104,451793,343654,4505
1705453633134,451819,343575,4456
1705453633150,451749,343583,4504
1705453633165,451912,343702,4505
1705453633181,451879,343639,4499
1705453633197,452033,343650,4505
1705453633212,452039,343664,4472
1705453633224,452012,343686,4508
1705453633240,452095,343583,4530
1705453633255,452059,343667,4572
1705453633271,451999,343646,4524
1705453633287,451939,343463,4503
1705453633302,451917,343493,4542
1705453633310,451853,343452,4525
1705453633326,451787,343474,4499
1705453633341,451701,343458,4503
1705453633357,451781,343417,4515
1705453633373,451781,343384,4432
1705453633388,451668,343461,4465
1705453633416,451758,343415,4488
1705453633432,451809,343415,4489
1705453633447,451813,343357,4488
1705453633463,451809,343438,4495
1705453633479,451890,343454,4505
1705453633494,451843,343431,4515
1705453633508,451901,343514,4499
1705453633524,451930,343411,4502
1705453633539,451874,343477,4542
1705453633555,451769,343487,4520
1705453633571,451881,343555,4501
1705453633586,451858,343515,4497
1705453633596,451841,343534,4517
1705453633612,451917,343501,4429
1705453633627,451841,343487,4501
1705453633643,451901,343547,4480
1705453633659,451969,343540,4436
1705453633674,452008,343598,4502
1705453633689,451907,343648,4501
1705453633705,451913,343598,4483
1705453633720,451958,343556,4500
1705453633736,451939,343630,4548
1705453633752,451977,343606,4505
1705453633767,451868,343543,4502
1705453633778,451981,343567,4501
1705453633794,451901,343608,4501
1705453633809,451974,343628,4469
1705453633825,452022,343615,4521
1705453633841,451891,343664,4503
1705453633856,451883,343563,4432
1705453633867,451930,343477,4501
1705453633883,451783,343465,4521
1705453633898,451650,343346,4431
1705453633914,451649,343273,4531
1705453633930,451539,343262,4500
1705453633945,451650,343268,4499
1705453633986,451543,343248,4498
1705453634002,451501,343251,4563
1705453634017,451581,343233,4498
1705453634033,451493,343219,4535
1705453634049,451443,343287,4514
1705453634064,451561,343343,4498
1705453634063,451501,343300,4497
1705453634079,451543,343377,4498
1705453634094,451524,343440,4523
1705453634110,451602,343383,4499
1705453634126,451611,343449,4500
1705453634141,451673,343442,4452
1705453634156,451763,343450,4501
1705453634172,451816,343424,4482
1705453634187,451817,343457,4482
1705453634203,451892,343489,4496
1705453634219,451871,343482,4536
1705453634234,451965,343501,4537
1705453634240,451939,343514,4523
1705453634256,451996,343561,4553
1705453634271,452009,343561,4504
1705453634287,452081,343556,4502
1705453634303,452048,343620,4494
1705453634318,451976,343674,4501
1705453634349,452165,343673,4490
1705453634365,452032,343734,4517
1705453634380,452116,343827,4524
1705453634396,452096,343754,4487
1705453634412,452229,343728,4488
1705453634427,452109,343676,4477
1705453634439,452098,343664,4500
1705453634455,452035,343569,4500
1705453634470,451961,343644,4545
1705453634486,451970,343532,4499
1705453634502,451903,343474,4500
1705453634517,451864,343491,4570
1705453634525,451852,343506,4525
1705453634541,451850,343522,4470
1705453634556,451814,343474,4519
1705453634572,451846,343545,4497
1705453634588,451836,343511,4476
1705453634603,451744,343599,4500
1705453634631,451935,343554,4500
1705453634647,451931,343547,4484
1705453634662,451948,343474,4496
1705453634678,451939,343507,4471
1705453634694,452026,343495,4497
1705453634709,451967,343494,4520
1705453634723,451947,343564,4509
1705453634739,452039,343602,4501
1705453634754,451840,343662,4540
1705453634770,451801,343614,4499
1705453634786,451915,343653,4524
1705453634801,451895,343668,4489
1705453634810,451895,343734,4496
1705453634826,451979,343706,4497
1705453634841,451898,343682,4445
1705453634857,452006,343727,4507
1705453634873,451991,343765,4481
1705453634888,451987,343743,4496
1705453634903,451975,343765,4483
1705453634919,451977,343742,4486
1705453634934,452122,343732,4497
1705453634950,452067,343709,4526
1705453634966,452079,343733,4532
1705453634981,452116,343655,4499
1705453635007,452104,343771,4506
1705453635023,451941,343704,4496
1705453635038,451933,343668,4507
1705453635054,451813,343621,4483
1705453635070,451701,343621,4492
1705453635085,451768,343555,4415
1705453635099,451609,343587,4493
1705453635115,451747,343590,4464
1705453635130,451587,343541,4428
1705453635146,451729,343492,4496
1705453635162,451657,343559,4468
1705453635177,451764,343603,4496
1705453635186,451774,343575,4494
1705453635202,451765,343596,4539
1705453635217,451820,343610,4493
1705453635233,451828,343586,4496
1705453635249,451821,343603,4532
1705453635264,451798,343662,4494
1705453635278,451864,343611,4526
1705453635294,451885,343658,4495
1705453635309,451914,343779,4495
1705453635325,452003,343700,4505
1705453635341,451895,343760,4491
1705453635356,452070,343714,4427
1705453635382,452068,343705,4494
1705453635398,452114,343727,4480
1705453635413,452225,343778,4469
1705453635429,452188,343808,4515
1705453635445,452190,343758,4497
1705453635460,452299,343819,4544
1705453635471,452264,343769,4459
1705453635487,452262,343825,4549
1705453635502,452233,343885,4498
1705453635518,452301,343885,4497
1705453635534,452308,343851,4487
1705453635549,452271,343921,4486
1705453635577,452306,343918,4443
1705453635593,452277,343917,4494
1705453635608,452246,343874,4499
1705453635624,452202,343781,4441
1705453635640,452247,343711,4494
1705453635655,452161,343622,4477
1705453635653,452146,343593,4483
1705453635669,452117,343530,4499
1705453635684,452137,343633,4577
1705453635700,452171,343585,4495
1705453635716,452104,343526,4486
1705453635731,452100,343611,4565
1705453635756,452159,343621,4486
1705453635772,452098,343573,4459
1705453635787,452022,343510,4522
1705453635803,452068,343632,4497
1705453635819,452033,343569,4425
1705453635834,451909,343575,4492
1705453635849,452012,343526,4491
1705453635865,452026,343459,4423
1705453635880,452073,343436,4493
1705453635896,452029,343535,4495
1705453635912,452170,343454,4494
1705453635927,452071,343356,4478
1705453635938,452046,343450,4494
1705453635954,452122,343426,4494
1705453635969,452010,343311,4525
1705453635985,451837,343331,4493
1705453636001,452085,343409,4493
1705453636016,452069,343452,4486
1705453636026,452065,343477,4491
1705453636042,452094,343567,4523
1705453636057,451992,343488,4423
1705453636073,452017,343538,4490
1705453636089,451986,343490,4452
1705453636104,452031,343456,4501
1705453636132,451869,343473,4487
1705453636148,451786,343464,4496
1705453636163,451898,343378,4488
1705453636179,451623,343445,4523
1705453636195,451590,343353,4516
1705453636210,451532,343219,4488
1705453636224,451480,343276,4510
1705453636240,451394,343314,4487
1705453636255,451440,343332,4487
1705453636271,451392,343283,4476
1705453636287,451357,343353,4487
1705453636302,451435,343382,4407
1705453636313,451275,343363,4486
1705453636329,451433,343444,4508
1705453636344,451439,343381,4420
1705453636360,451475,343403,4488
1705453636376,451396,343405,4473
1705453636391,451432,343368,4460
1705453636401,451414,343349,4483
1705453636417,451423,343417,4552
1705453636432,451421,343451,4488
1705453636448,451408,343485,4468
1705453636464,451449,343582,4543
1705453636479,451401,343664,4491
1705453636507,451615,343714,4481
1705453636523,451582,343785,4501
1705453636538,451715,343927,4516
1705453636554,451721,343894,4507
1705453636570,451831,343985,4492
1705453636585,451884,344089,4459
1705453636598,452060,344146,4494
1705453636614,452155,344118,4489
1705453636629,452154,344197,4477
1705453636645,452274,344186,4493
1705453636661,452217,344166,4495
1705453636676,452217,344177,4563
1705453636686,452253,344051,4494
1705453636702,452224,344045,4537
1705453636717,452100,344012,4525
1705453636733,452069,343917,4483
1705453636749,452059,343777,4477
1705453636764,451973,343750,4499
1705453636778,452112,343678,4507
1705453636794,452070,343574,4497
1705453636809,452064,343638,4508
1705453636825,452119,343536,4441
1705453636841,452210,343482,4500
1705453636856,452164,343445,4480
1705453636880,452224,343482,4519
1705453636896,452254,343409,4502
1705453636911,452235,343371,4513
1705453636927,452270,343397,4518
1705453636943,452311,343283,4501
1705453636958,452296,343297,4573
1705453636971,452275,343302,4502
1705453636987,452351,343308,4500
1705453637002,452310,343312,4467
1705453637018,452295,343329,4499
1705453637034,452335,343324,4436
1705453637049,452252,343281,4502
1705453637064,452481,343251,4505
1705453637080,452661,343236,4493
1705453637095,452731,343236,4508
1705453637111,452751,343280,4460
1705453637127,452809,343285,4513
1705453637142,452811,343194,4551
1705453637167,452904,343254,4534
1705453637183,452988,343336,4512
1705453637198,453009,343211,4511
1705453637214,453107,343358,4511
1705453637230,453015,343318,4528
1705453637245,453015,343282,4509
1705453637256,452913,343243,4489
1705453637272,452942,343261,4524
1705453637287,453071,343299,4444
1705453637303,453122,343337,4530
1705453637319,453144,343371,4465
1705453637334,453209,343454,4505
1705453637345,453298,343417,4517
1705453637361,453425,343398,4512
1705453637376,453546,343383,4520
1705453637392,453505,343305,4541
1705453637408,453575,343338,4569
1705453637423,453654,343241,4524
1705453637439,453674,343349,4538
1705453637455,453713,343299,4525
1705453637470,453714,343286,4526
1705453637486,453670,343258,4539
1705453637502,453622,343296,4524
1705453637517,453669,343129,4497
1705453637543,453666,343177,4518
1705453637559,453683,343191,4492
1705453637574,453597,343167,4477
1705453637590,453704,343221,4524
1705453637606,453600,343170,4505
1705453637621,453627,343172,4502
1705453637618,453607,343137,4521
1705453637634,453552,343236,4569
1705453637649,453633,343234,4524
1705453637665,453687,343183,4522
1705453637681,453571,343235,4592
1705453637696,453631,343261,4523
1705453637737,453664,343305,4477
1705453637753,453614,343316,4547
1705453637768,453574,343366,4519
1705453637784,453655,343226,4459
1705453637800,453323,343169,4524
1705453637815,453449,343186,4546
1705453637815,453444,343064,4521
1705453637831,453370,343097,4520
1705453637846,453358,343138,4522
1705453637862,453414,343128,4521
1705453637878,453337,342999,4505
1705453637893,453344,343109,4575
1705453637901,453399,343087,4536
1705453637917,453331,343064,4533
1705453637932,453416,343110,4548
1705453637948,453436,343160,4523
1705453637964,453449,343061,4514
1705453637979,453398,343011,4523
1705453638006,453421,343028,4502
1705453638022,453348,343053,4451
1705453638037,453256,343079,4520
1705453638053,453253,342993,4487
1705453638069,453243,342965,4527
1705453638084,453125,342995,4479
1705453638112,453112,342968,4572
1705453638128,453124,342942,4520
1705453638143,452971,342922,4574
1705453638159,452927,342994,4509
1705453638175,452953,342901,4516
1705453638190,452888,342882,4585
1705453638189,452993,342902,4516
1705453638205,452958,342981,4517
1705453638220,453077,342929,4508
1705453638236,453064,342980,4516
1705453638252,453140,342992,4436
1705453638267,453059,342901,4537
1705453638276,453114,342869,4524
1705453638292,453030,342884,4450
1705453638307,453054,342836,4518
1705453638323,452929,342832,4538
1705453638339,453020,342835,4500
1705453638354,452961,342801,4512
1705453638381,452955,342850,4526
1705453638397,453055,342768,4516
1705453638412,452943,342657,4520
1705453638428,452920,342755,4532
1705453638444,452937,342751,4520
1705453638459,452938,342712,4487
1705453638487,452969,342701,4493
1705453638503,452954,342799,4545
1705453638518,452935,342702,4449
1705453638534,452791,342713,4519
1705453638550,452903,342753,4485
1705453638565,452850,342710,4452
1705453638561,452839,342721,4513
1705453638577,452731,342665,4492
1705453638592,452775,342702,4513
1705453638608,452621,342654,4494
1705453638624,452650,342661,4578
1705453638639,452660,342606,4514
1705453638666,452577,342620,4543
1705453638682,452431,342608,4513
1705453638697,452571,342613,4513
1705453638713,452611,342601,4535
1705453638729,452462,342646,4512
1705453638744,452561,342670,4511
1705453638756,452640,342591,4539
1705453638772,452534,342705,4522
1705453638787,452549,342551,4448
1705453638803,452578,342626,4546
1705453638819,452492,342529,4493
1705453638834,452396,342520,4487
1705453638845,452359,342465,4565
1705453638861,452311,342437,4540
1705453638876,452294,342425,4551
1705453638892,452250,342425,4513
1705453638908,452259,342369,4584
1705453638923,452129,342318,4513
1705453638939,452184,342283,4509
1705453638955,452207,342251,4465
1705453638970,452159,342264,4512
1705453638986,452185,342236,4462
1705453639002,452188,342180,4514
1705453639017,452207,342233,4482
1705453639042,452082,342200,4514
1705453639058,452125,342135,4512
1705453639073,452033,342190,4458
1705453639089,452062,342172,4508
1705453639105,451930,342137,4533
1705453639120,451862,342204,4576
1705453639115,451794,342200,4504
1705453639131,451792,342083,4509
1705453639146,451775,342120,4542
1705453639162,451761,342069,4509
1705453639178,451775,342106,4485
1705453639193,451585,342061,4507
1705453639223,451765,342102,4520
1705453639239,451688,342099,4499
1705453639254,451653,342136,4507
1705453639270,451784,342124,4419
1705453639286,451739,342073,4494
1705453639301,451780,342098,4486
1705453639314,451740,342102,4530
1705453639330,451811,342075,4508
1705453639345,451734,342025,4505
1705453639361,451671,342047,4508
1705453639377,451592,341915,4504
1705453639392,451454,341933,4584
1705453639416,451502,341876,4540
1705453639432,451389,341902,4505
1705453639447,451274,341815,4494
1705453639463,451305,341805,4504
1705453639479,451197,341752,4474
1705453639494,451025,341690,4511
1705453639491,451074,341666,4446
1705453639507,450960,341602,4467
1705453639522,451037,341617,4504
1705453639538,450976,341579,4505
1705453639554,450960,341600,4481
1705453639569,450991,341527,4503
1705453639612,450906,341607,4548
1705453639628,450995,341610,4501
1705453639643,450980,341485,4502
1705453639659,450951,341551,4531
1705453639675,450822,341561,4502
1705453639690,450922,341572,4461
1705453639689,450936,341537,4502
1705453639705,450830,341589,4503
1705453639720,450903,341542,4424
1705453639736,450758,341555,4501
1705453639752,450872,341546,4523
1705453639767,450840,341572,4433
1705453639775,450853,341476,4499
1705453639791,450912,341565,4504
1705453639806,450987,341526,4505
1705453639822,450835,341508,4494
1705453639838,450918,341519,4568
1705453639853,450929,341542,4501
1705453639881,450877,341511,4523
1705453639897,450852,341539,4529
1705453639912,450889,341585,4504
1705453639928,450891,341588,4526
1705453639944,450948,341574,4504
1705453639959,450924,341645,4529
1705453639974,450916,341639,4498
1705453639990,450900,341631,4482
1705453640005,450967,341618,4455
1705453640021,451004,341522,4502
1705453640037,450728,341486,4482
1705453640052,450790,341367,4472
1705453640060,450593,341286,4501
1705453640076,450586,341276,4547
1705453640091,450586,341324,4543
1705453640107,450462,341165,4504
1705453640123,450495,341248,4568
1705453640138,450387,341236,4497
1705453640166,450381,341143,4488
1705453640182,450383,341154,4489
1705453640197,450184,341165,4495
1705453640213,450213,341066,4417
1705453640229,450164,341054,4512
1705453640244,450294,341127,4497
1705453640256,450220,341057,4522
1705453640272,450273,341050,4497
1705453640287,450232,340991,4484
1705453640303,450302,341041,4498
1705453640319,450261,341000,4496
1705453640334,450231,341016,4569
1705453640348,450172,341005,4544
1705453640364,450159,340935,4502
1705453640379,450156,341079,4528
1705453640395,450140,341025,4501
1705453640411,450194,341058,4463
1705453640426,450117,341038,4521
1705453640435,450191,341000,4499
1705453640451,450227,341030,4430
1705453640466,450118,341025,4501
1705453640482,450270,341024,4494
1705453640498,450226,341038,4438
1705453640513,450275,341022,4492
1705453640528,450293,341063,4478
1705453640544,450320,341064,4501
1705453640559,450270,341018,4526
1705453640575,450273,341180,4501
1705453640591,450344,341096,4501
1705453640606,450257,341161,4526
1705453640631,450207,341181,4506
1705453640647,450284,341271,4500
1705453640662,450327,341235,4523
1705453640678,450243,341312,4518
1705453640694,450386,341308,4497
1705453640709,450414,341253,4436
1705453640721,450405,341298,4515
1705453640737,450513,341256,4445
1705453640752,450557,341348,4505
1705453640768,450468,341354,4467
1705453640784,450528,341391,4485
1705453640799,450679,341383,4502
1705453640815,450556,341386,4510
1705453640831,450672,341423,4536
1705453640846,450626,341401,4503
1705453640862,450676,341441,4521
1705453640878,450619,341501,4507
1705453640893,450765,341526,4503
1705453640916,450770,341564,4500
1705453640932,450686,341539,4501
1705453640947,450701,341463,4454
1705453640963,450567,341409,4505
1705453640979,450545,341404,4476
1705453640994,450441,341312,4435
1705453640990,450463,341261,4501
1705453641006,450435,341219,4467
1705453641021,450418,341174,4507
1705453641037,450365,341181,4464
1705453641053,450288,341146,4573
1705453641068,450300,341132,4502
1705453641099,450222,341073,4502
1705453641115,450201,341099,4521
1705453641130,450137,341085,4502
1705453641146,450101,341033,4467
1705453641162,450133,340999,4503
1705453641177,450177,341033,4505
1705453641188,450249,341067,4478
1705453641204,450190,341061,4503
1705453641219,450220,341013,4414
1705453641235,450273,340990,4507
1705453641251,450232,341019,4484
1705453641266,450211,340990,4488
1705453641275,450208,341046,4506
1705453641291,450207,340938,4519
1705453641306,450187,341013,4549
1705453641322,450153,340976,4503
1705453641338,450206,341005,4583
1705453641353,450149,341033,4503
1705453641382,450216,341006,4522
1705453641398,450204,341063,4483
1705453641413,450152,341138,4506
1705453641429,450218,341091,4385
1705453641445,450247,341058,4505
1705453641460,450233,341108,4494
1705453641475,450258,341097,4490
1705453641491,450428,341085,4508
1705453641506,450376,341080,4489
1705453641522,450366,341070,4507
1705453641538,450413,341011,4509
1705453641553,450315,341127,4592
1705453641575,450372,341076,4492
1705453641591,450415,341041,4508
1705453641606,450369,341173,4576
1705453641622,450419,341178,4511
1705453641638,450367,341187,4459
1705453641653,450453,341197,4531
1705453641651,450497,341260,4510
1705453641667,450481,341245,4442
1705453641682,450525,341256,4510
1705453641698,450550,341332,4532
1705453641714,450628,341298,4456
1705453641729,450623,341257,4510
1705453641756,450617,341338,4514
1705453641772,450649,341332,4513
1705453641787,450662,341252,4494
1705453641803,450706,341358,4494
1705453641819,450789,341346,4512
1705453641834,450750,341360,4544
1705453641850,450809,341434,4486
1705453641866,450759,341439,4512
1705453641881,450690,341393,4505
1705453641897,450519,341313,4509
1705453641913,450532,341415,4509
1705453641928,450489,341243,4430
1705453641936,450427,341232,4507
1705453641952,450362,341270,4491
1705453641967,450402,341164,4515
1705453641983,450306,341162,4486
1705453641999,450183,341083,4489
1705453642014,450220,341058,4507
1705453642028,450183,341065,4513
1705453642044,450029,340981,4537
1705453642059,450127,340864,4510
1705453642075,450102,341027,4535
1705453642091,449964,340975,4510
1705453642106,450078,341001,4507
1705453642133,450042,340988,4508
1705453642149,449964,341074,4508
1705453642164,450035,341018,4427
1705453642180,449913,340963,4509
1705453642196,449992,340942,4557
1705453642211,450026,340949,4464
1705453642220,450048,340968,4533
1705453642236,449979,340900,4486
1705453642251,450064,340907,4511
1705453642267,449939,340847,4504
1705453642283,450065,340959,4554
1705453642298,450055,340944,4512
1705453642313,450019,340925,4465
1705453642329,450021,340918,4581
1705453642344,449951,340937,4510
1705453642360,450086,340891,4501
1705453642376,450034,340924,4531
1705453642391,450054,341018,4510
1705453642416,450036,340980,4534
1705453642432,450014,341049,4533
1705453642447,450086,340994,4481
1705453642463,450135,340994,4514
1705453642479,450036,340969,4504
1705453642494,450097,340966,4488
1705453642491,450252,341014,4515
1705453642507,450122,340901,4537
1705453642522,450171,341011,4554
1705453642538,450206,340964,4510
1705453642554,450174,341069,4552
1705453642569,450197,341034,4541
1705453642595,450292,341074,4522
1705453642611,450276,341057,4502
1705453642626,450219,341077,4515
1705453642642,450265,341115,4507
1705453642658,450311,341076,4448
1705453642673,450179,341139,4525
1705453642689,450379,341183,4501
1705453642705,450362,341123,4516
1705453642720,450266,341135,4480
1705453642736,450266,341123,4516
1705453642752,450422,341186,4516
1705453642767,450374,341125,4532
1705453642793,450373,341193,4515
1705453642809,450382,341095,4513
1705453642824,450322,341227,4558
1705453642840,450212,341129,4534
1705453642856,450179,341129,4512
1705453642871,450088,341017,4489
1705453642866,449963,341030,4509
1705453642882,449943,340936,4461
1705453642897,449810,340823,4513
1705453642913,449837,340773,4472
1705453642929,449740,340718,4442
1705453642944,449813,340640,4509
1705453642974,449607,340656,4493
1705453642990,449604,340590,4550
1705453643005,449533,340495,4535
1705453643021,449527,340476,4526
1705453643037,449548,340547,4510
1705453643052,449454,340415,4514
1705453643064,449390,340499,4514
1705453643080,449403,340525,4510
1705453643095,449397,340515,4512
1705453643111,449260,340497,4514
1705453643127,449318,340519,4515
1705453643142,449399,340434,4444
1705453643151,449257,340486,4511
1705453643167,449295,340436,4502
1705453643182,449269,340422,4499
1705453643198,449270,340435,4510
1705453643214,449247,340359,4495
1705453643229,449223,340372,4512
1705453643257,449203,340397,4535
1705453643273,449218,340378,4555
1705453643288,449189,340315,4536
1705453643304,449154,340418,4580
1705453643320,449076,340415,4515
1705453643335,449172,340385,4492
1705453643349,449148,340376,4532
1705453643365,449051,340461,4515
1705453643380,449143,340405,4494
1705453643396,449181,340440,4516
1705453643412,449154,340509,4484
1705453643427,449198,340449,4448
1705453643435,449200,340478,4516
1705453643451,449209,340472,4504
1705453643466,449268,340475,4496
1705453643482,449293,340412,4506
1705453643498,449304,340544,4588
1705453643513,449410,340569,4518
1705453643556,449330,340555,4515
1705453643572,449363,340598,4587
1705453643587,449395,340583,4518
1705453643603,449434,340645,4451
1705453643619,449376,340672,4532
1705453643634,449386,340719,4523
1705453643630,449568,340682,4527
1705453643646,449483,340692,4516
1705453643661,449475,340746,4542
1705453643677,449613,340693,4521
1705453643693,449636,340699,4519
1705453643708,449649,340785,4522
1705453643738,449679,340750,4524
1705453643754,449713,340727,4521
1705453643769,449689,340805,4587
1705453643785,449764,340793,4521
1705453643801,449715,340829,4564
1705453643816,449696,340845,4548
1705453643811,449820,340878,4520
1705453643827,449743,340866,4501
1705453643842,449650,340837,4521
1705453643858,449590,340821,4522
1705453643874,449579,340710,4449
1705453643889,449322,340691,4519
1705453643904,449369,340618,4484
1705453643920,449382,340548,4528
1705453643935,449292,340483,4499
1705453643951,449220,340492,4485
1705453643967,449284,340404,4519
1705453643982,449064,340303,4576
1705453644006,449047,340308,4534
1705453644022,448991,340169,4551
1705453644037,448926,340242,4587
1705453644053,448845,340215,4518
1705453644069,448912,340202,4534
1705453644084,448861,340218,4509
1705453644096,448845,340263,4537
1705453644112,448905,340268,4439
1705453644127,448765,340228,4520
1705453644143,448833,340188,4543
1705453644159,448779,340196,4475
1705453644174,448913,340154,4521
1705453644190,448849,340151,4524
1705453644206,448875,340097,4507
1705453644221,448841,340064,4518
1705453644237,448820,340160,4573
1705453644253,448781,340126,4522
1705453644268,448725,340063,4522
1705453644292,448761,340162,4521
1705453644308,448708,340184,4545
1705453644323,448743,340253,4491
1705453644339,448729,340222,4506
1705453644355,448861,340269,4523
1705453644370,448900,340215,4455
1705453644384,448911,340219,4527
1705453644400,448805,340218,4491
1705453644415,448894,340224,4480
1705453644431,448893,340174,4522
1705453644447,448945,340257,4520
1705453644462,448999,340258,4527
1705453644474,448945,340304,4510
1705453644490,449001,340273,4596
1705453644505,449008,340223,4527
1705453644521,448956,340253,4586
1705453644537,448909,340290,4556
1705453644552,448972,340328,4527
1705453644563,449044,340375,4528
1705453644579,448967,340393,4526
1705453644594,449047,340402,4518
1705453644610,449110,340412,4528
1705453644626,449005,340511,4528
1705453644641,449153,340456,4455
1705453644665,449153,340474,4531
1705453644681,449233,340450,4511
1705453644696,449242,340480,4523
1705453644712,449254,340488,4529
1705453644728,449325,340486,4541
1705453644743,449340,340511,4570
1705453644740,449322,340601,4531
1705453644756,449299,340583,4600
1705453644771,449278,340609,4533
1705453644787,449410,340625,4533
1705453644803,449458,340639,4506
1705453644818,449395,340698,4529
1705453644848,449341,340622,4529
1705453644864,449182,340574,4530
1705453644879,449270,340619,4529
1705453644895,449123,340436,4548
1705453644911,449149,340350,4530
1705453644926,448991,340336,4498
1705453644939,448996,340332,4546
1705453644955,448925,340210,4550
1705453644970,448855,340246,4563
1705453644986,448795,340200,4530
1705453645002,448719,340060,4528
1705453645017,448715,340140,4565
1705453645026,448692,340125,4542
1705453645042,448667,340079,4529
1705453645057,448620,340048,4529
1705453645073,448681,340079,4491
1705453645089,448678,340084,4461
1705453645104,448566,340130,4532
1705453645131,448661,340023,4499
1705453645147,448721,340071,4485
1705453645162,448676,340010,4514
1705453645178,448674,340059,4523
1705453645194,448774,340082,4535
1705453645209,448695,340061,4534
1705453645222,448707,340110,4549
1705453645238,448692,340010,4534
1705453645253,448651,340092,4565
1705453645269,448599,339987,4533
1705453645285,448690,340102,4533
1705453645300,448715,340063,4525
1705453645309,448735,340113,4532
1705453645325,448684,340125,4461
1705453645340,448696,340103,4531
1705453645356,448814,340151,4505
1705453645372,448808,340137,4467
1705453645387,448930,340142,4537
1705453645430,448793,340196,4540
1705453645446,448829,340174,4515
1705453645461,448930,340177,4528
1705453645477,448866,340267,4619
1705453645493,449021,340215,4538
1705453645508,448956,340218,4540
1705453645506,448983,340286,4536
1705453645522,448930,340262,4537
1705453645537,449027,340302,4540
1705453645553,449015,340349,4540
1705453645569,449086,340376,4541
1705453645584,449086,340396,4472
1705453645595,449098,340299,4540
1705453645611,449182,340488,4563
1705453645626,449190,340405,4471
1705453645642,449240,340422,4522
1705453645658,449312,340454,4536
1705453645673,449353,340488,4544
1705453645689,449374,340493,4537
1705453645705,449367,340519,4606
1705453645720,449436,340524,4541
1705453645736,449442,340530,4573
1705453645752,449401,340549,4551
1705453645767,449470,340605,4541
1705453645779,449468,340615,4557
1705453645795,449465,340620,4541
1705453645810,449577,340735,4573
1705453645826,449642,340663,4553
1705453645842,449562,340763,4544
1705453645857,449689,340738,4496
1705453645881,449784,340772,4555
1705453645897,449691,340772,4524
1705453645912,449742,340806,4528
1705453645928,449672,340732,4541
1705453645944,449629,340653,4579
1705453645959,449600,340624,4570
1705453645969,449480,340599,4554
1705453645985,449498,340593,4613
1705453646000,449309,340532,4537
1705453646016,449329,340478,4538
1705453646032,449321,340447,4531
1705453646047,449206,340446,4524
1705453646064,449228,340431,4480
1705453646080,449154,340375,4553
1705453646095,449171,340413,4563
1705453646111,449141,340312,4555
1705453646127,449210,340299,4541
1705453646142,449155,340335,4526
1705453646153,449182,340317,4537
1705453646169,449274,340329,4536
1705453646184,449201,340322,4611
1705453646200,449277,340381,4526
1705453646216,449271,340285,4540
1705453646231,449143,340341,4610
1705453646242,449145,340375,4541
1705453646258,449214,340366,4508
1705453646273,449199,340364,4565
1705453646289,449255,340337,4571
1705453646305,449218,340382,4483
1705453646320,449161,340376,4542
1705453646347,449264,340329,4536
1705453646363,449280,340360,4478
1705453646378,449271,340320,4538
1705453646394,449338,340435,4535
1705453646410,449420,340425,4544
1705453646425,449305,340344,4567
1705453646438,449353,340392,4564
1705453646454,449367,340390,4557
1705453646469,449448,340413,4584
1705453646485,449389,340460,4544
1705453646501,449426,340495,4563
1705453646516,449406,340508,4540
1705453646527,449495,340542,4545
1705453646543,449501,340572,4542
1705453646558,449435,340526,4469
1705453646574,449593,340589,4555
1705453646590,449528,340578,4474
1705453646605,449631,340639,4544
1705453646631,449635,340617,4545
1705453646647,449666,340645,4530
1705453646662,449787,340615,4547
1705453646678,449681,340741,4554
1705453646694,449796,340702,4583
1705453646709,449753,340624,4547
1705453646722,449765,340709,4548
1705453646738,449815,340823,4516
1705453646753,449823,340761,4573
1705453646769,449867,340786,4567
1705453646785,449808,340896,4547
1705453646800,449908,340827,4478
1705453646814,449890,340859,4547
1705453646830,449937,340922,4520
1705453646845,449996,340924,4473
1705453646861,449977,340883,4550
1705453646877,450078,340993,4514
1705453646892,450121,341012,4551
1705453646902,450061,341015,4547
1705453646918,450142,341030,4592
1705453646933,450204,341033,4547
1705453646949,450136,341027,4579
1705453646965,450223,341031,4584
1705453646980,450131,341137,4548
1705453647006,450121,341087,4573
1705453647022,450033,341011,4545
1705453647037,450052,341035,4548
1705453647053,450031,340956,4557
1705453647069,449850,340900,4549
1705453647084,449911,340838,4514
1705453647097,449904,340820,4552
1705453647113,449920,340789,4527
1705453647128,449891,340814,4552
1705453647144,449837,340741,4547
1705453647160,449712,340690,4544
1705453647175,449833,340734,4577
1705453647186,449779,340714,4545
1705453647202,449763,340712,4623
1705453647217,449679,340699,4544
1705453647233,449721,340780,4546
1705453647249,449764,340734,4537
1705453647264,449669,340816,4543
1705453647279,449828,340751,4482
1705453647295,449727,340728,4543
1705453647310,449677,340822,4545
1705453647326,449822,340752,4515
1705453647342,449814,340785,4543
1705453647357,449781,340741,4548
1705453647380,449737,340789,4542
1705453647396,449808,340739,4545
1705453647411,449836,340810,4581
1705453647427,449913,340774,4545
1705453647443,449836,340725,4545
1705453647458,449804,340802,4616
1705453647470,449868,340806,4559
1705453647486,449903,340819,4507
1705453647501,449872,340844,4569
1705453647517,449881,340868,4546
1705453647533,449962,340853,4500
1705453647548,449898,340912,4545
1705453647575,450007,340873,4510
1705453647591,450040,340895,4481
1705453647606,450052,340887,4547
1705453647622,450047,340959,4550
1705453647638,450152,340987,4548
1705453647653,450090,340950,4534
1705453647653,450117,340997,4549
1705453647669,450191,341010,4548
1705453647684,450178,341008,4578
1705453647700,450197,341011,4524
1705453647716,450152,341141,4547
1705453647731,450226,341076,4542
1705453647740,450279,341106,4543
1705453647756,450270,341198,4579
1705453647771,450267,341151,4480
1705453647787,450359,341197,4550
1705453647803,450365,341233,4502
1705453647818,450383,341196,4554
1705453647850,450329,341266,4569
1705453647866,450398,341222,4531
1705453647881,450512,341220,4548
1705453647897,450484,341194,4583
1705453647913,450479,341256,4576
1705453647928,450497,341339,4569
1705453647952,450540,341309,4555
1705453647968,450562,341320,4552
1705453647983,450558,341385,4569
1705453647999,450578,341352,4561
1705453648015,450475,341477,4549
1705453648030,450656,341445,4469
1705453648041,450635,341455,4549
1705453648057,450720,341509,4571
1705453648072,450684,341445,4483
1705453648088,450791,341464,4520
1705453648104,450743,341464,4549
1705453648119,450741,341480,4531
1705453648116,450650,341390,4544
1705453648132,450635,341383,4614
1705453648147,450592,341345,4546
1705453648163,450443,341278,4546
1705453648179,450398,341268,4616
1705453648194,450266,341230,4547
1705453648222,450303,341188,4515
1705453648238,450238,341144,4567
1705453648253,450241,341174,4572
1705453648269,450168,341133,4565
1705453648285,450047,341065,4545
1705453648300,450187,341078,4511
1705453648313,450169,340986,4544
1705453648329,450141,340992,4546
1705453648344,450116,341012,4528
1705453648360,450143,341035,4544
1705453648376,450071,340977,4567
1705453648391,450048,341010,4613
1705453648417,450044,340986,4521
1705453648433,450053,341019,4590
1705453648448,450029,340996,4574
1705453648464,450053,340989,4557
1705453648480,450013,340993,4527
1705453648495,449991,340968,4546
1705453648507,450045,340988,4551
1705453648523,450081,340985,4478
1705453648538,450063,341015,4554
1705453648554,450047,340981,4549
1705453648570,450126,340984,4543
1705453648585,450082,340982,4525
1705453648598,450130,341013,4545
1705453648614,450163,340976,4547
1705453648629,450150,340959,4557
1705453648645,450181,341036,4541
1705453648661,450181,340953,4565
1705453648676,450166,341053,4613
1705453648686,450196,341051,4547
1705453648702,450186,341109,4546
1705453648717,450250,341076,4522
1705453648733,450298,341149,4563
1705453648749,450212,341100,4477
1705453648764,450190,341066,4548
1705453648780,450256,341085,4548
1705453648796,450319,341128,4510
1705453648811,450350,341107,4546
1705453648827,450288,341175,4552
1705453648843,450410,341174,4550
1705453648858,450376,341076,4573
1705453648880,450400,341181,4527
1705453648896,450404,341194,4549
1705453648911,450473,341121,4548
1705453648927,450408,341224,4521
1705453648943,450438,341297,4546
1705453648958,450480,341267,4543
1705453648974,450520,341294,4546
1705453648990,450518,341378,4570
1705453649005,450572,341324,4478
1705453649021,450552,341354,4578
1705453649037,450604,341346,4479
1705453649052,450576,341336,4553
1705453649061,450647,341350,4549
1705453649077,450683,341356,4529
1705453649092,450779,341371,4548
1705453649108,450663,341383,4550
1705453649124,450699,341458,4569
1705453649139,450779,341347,4548
1705453649154,450790,341479,4586
1705453649170,450772,341474,4547
1705453649185,450857,341508,4560
1705453649201,450793,341560,4563
1705453649217,450736,341551,4551
1705453649232,450860,341510,4448
1705453649256,450774,341531,4548
1705453649272,450702,341538,4517
1705453649287,450675,341444,4476
1705453649303,450677,341360,4544
1705453649319,450535,341365,4529
1705453649334,450445,341286,4524
1705453649345,450406,341160,4542
1705453649361,450302,341175,4623
1705453649376,450335,341169,4547
1705453649392,450234,341048,4545
1705453649408,450101,341081,4590
1705453649423,450112,340982,4541
1705453649439,450155,341048,4498
1705453649455,450067,340927,4567
1705453649470,450096,341002,4559
1705453649486,450021,340920,4473
1705453649502,449947,340915,4545
1705453649517,450052,341003,4498
1705453649529,449976,340907,4545
1705453649545,450069,340870,4541
1705453649560,449993,340914,4546
1705453649576,450009,340881,4527
1705453649592,449911,340784,4525
1705453649607,449989,340859,4611
1705453649616,450011,340812,4552
1705453649632,449982,340830,4546
1705453649647,449877,340853,4570
1705453649663,449871,340838,4543
1705453649679,449858,340832,4543
1705453649694,449851,340818,4544
1705453649722,449972,340813,4545
1705453649738,449865,340863,4473
1705453649753,449837,340877,4544
1705453649769,449907,340857,4502
1705453649785,450001,340859,4552
1705453649800,449939,340844,4545
1705453649814,450004,340898,4546
1705453649830,450008,340858,4547
1705453649845,450007,340765,4601
1705453649861,449962,340915,4545
1705453649877,450004,340812,4547
1705453649892,450030,340905,4604
1705453649904,449983,340875,4546
1705453649920,450016,340942,4546
1705453649935,450016,340937,4537
1705453649951,450046,341017,4531
1705453649967,450101,340976,4472
1705453649982,450002,340967,4563
1705453649991,450092,340969,4550
1705453650007,450082,340993,4480
1705453650022,450166,341018,4546
1705453650038,450082,340983,4549
1705453650054,450199,341012,4525
1705453650069,450157,341033,4546
1705453650097,450277,341050,4579
1705453650113,450306,341041,4548
1705453650128,450251,341025,4519
1705453650144,450261,341074,4563
1705453650160,450211,341127,4545
1705453650175,450282,341150,4519
1705453650189,450274,341134,4550
1705453650205,450341,341170,4579
1705453650220,450374,341101,4478
1705453650236,450239,341257,4549
1705453650252,450390,341210,4514
1705453650267,450407,341195,4485
1705453650277,450509,341204,4543
1705453650293,450501,341216,4533
1705453650308,450431,341201,4547
1705453650324,450376,341156,4533
1705453650340,450230,341105,4616
1705453650355,450230,340997,4546
1705453650380,450120,341000,4543
1705453650396,449996,340890,4543
1705453650411,449945,340888,4581
1705453650427,449905,340857,4573
1705453650443,449736,340778,4545
1705453650458,449748,340719,4534
1705453650472,449742,340671,4580
1705453650488,449637,340681,4553
1705453650503,449630,340626,4474
1705453650519,449611,340568,4549
1705453650535,449601,340547,4522
1705453650550,449517,340571,4522
1705453650561,449537,340554,4561
1705453650577,449551,340577,4573
1705453650592,449612,340537,4570
1705453650608,449488,340513,4545
1705453650624,449488,340525,4614
1705453650639,449425,340541,4545
1705453650654,449450,340445,4532
1705453650670,449483,340503,4520
1705453650685,449378,340554,4544
1705453650701,449485,340471,4552
1705453650717,449380,340493,4543
1705453650732,449440,340494,4513
1705453650756,449413,340474,4523
1705453650772,449506,340396,4547
1705453650787,449450,340484,4511
1705453650803,449503,340457,4567
1705453650819,449517,340375,4566
1705453650834,449463,340497,4613
1705453650860,449508,340516,4548
1705453650876,449570,340436,4546
1705453650891,449491,340499,4596
1705453650907,449501,340541,4571
1705453650923,449551,340570,4548
1705453650938,449504,340521,4549
1705453650939,449631,340560,4531
1705453650955,449556,340582,4491
1705453650970,449491,340629,4549
1705453650986,449649,340635,4480
1705453651002,449690,340569,4572
1705453651017,449713,340611,4528
1705453651029,449717,340634,4551
1705453651045,449774,340657,4548
1705453651060,449700,340570,4550
1705453651076,449742,340671,4551
1705453651092,449781,340592,4548
1705453651107,449785,340700,4626
1705453651131,449833,340737,4548
1705453651147,449805,340751,4560
1705453651162,449835,340738,4543
1705453651178,449817,340810,4546
1705453651194,449877,340805,4524
1705453651209,449880,340776,4537
1705453651220,449959,340762,4548
1705453651236,450017,340799,4481
1705453651251,450056,340854,4547
1705453651267,450004,340795,4555
1705453651283,450018,340878,4530
1705453651298,450091,340772,4551
1705453651314,450021,340814,4621
1705453651330,450062,340922,4552
1705453651345,450137,340856,4551
1705453651361,450141,340955,4580
1705453651377,450071,340973,4553
