timestamp,ambient,infrared,red
1705465174856,173068,172985,3845
1705465174874,428248,377739,3938
1705465174873,428380,377817,3916
1705465174873,428334,377808,3977
1705465174874,428038,377552,3944
1705465174872,428102,377525,3948
1705465174890,428102,377525,3948
1705465174889,428102,377525,3948
1705465174889,428102,377525,3948
1705465174890,428102,377525,3948
1705465174887,428077,377495,3966
1705465174905,428077,377495,3966
1705465174904,428077,377495,3966
1705465174904,428077,377495,3966
1705465174905,428077,377495,3966
1705465174903,427962,377487,3948
1705465174921,427962,377487,3948
1705465174920,427962,377487,3948
1705465174920,427962,377487,3948
1705465174921,427962,377487,3948
1705465174919,428036,377496,3982
1705465174937,428036,377496,3982
1705465174936,428036,377496,3982
1705465174936,428036,377496,3982
1705465174937,428036,377496,3982
1705465174934,428071,377442,3946
1705465174952,428071,377442,3946
1705465174951,428071,377442,3946
1705465174951,428071,377442,3946
1705465174952,428071,377442,3946
1705465174943,428046,377469,3946
1705465174959,428068,377481,3886
1705465174974,428074,377499,3953
1705465174990,428021,377459,3927
1705465175006,428031,377504,3898
1705465175021,428134,377421,3947
1705465175050,428044,377492,3937
1705465175066,428123,377431,3975
1705465175081,428056,377386,3950
1705465175097,428054,377429,3956
1705465175113,427915,377406,3947
1705465175128,428102,377372,3946
1705465175141,428043,377473,3944
1705465175157,427968,377468,3968
1705465175172,428070,377524,3870
1705465175188,428001,377461,3947
1705465175204,428090,377579,3975
1705465175219,428095,377475,3899
1705465175229,428085,377463,3943
1705465175245,428065,377478,3929
1705465175260,428076,377495,3900
1705465175276,428089,377429,3963
1705465175292,428090,377487,4018
1705465175307,428136,377491,3948
1705465175333,428129,377485,3975
1705465175349,428138,377525,4024
1705465175364,428047,377491,3946
1705465175380,428090,377541,3943
1705465175396,428027,377550,3970
1705465175411,428158,377635,3981
1705465175438,428177,377598,3952
1705465175454,428111,377575,3946
1705465175469,428210,377626,3923
1705465175485,428193,377576,3939
1705465175501,428157,377597,3944
1705465175516,428201,377620,3906
1705465175529,428197,377589,3948
1705465175545,428208,377508,3969
1705465175560,428161,377525,4013
1705465175576,428149,377490,3949
1705465175592,428122,377495,3993
1705465175607,428057,377496,3977
1705465175605,428031,377450,3940
1705465175621,428049,377442,3966
1705465175636,427986,377399,3947
1705465175652,427989,377402,3965
1705465175668,428018,377399,3876
1705465175683,427881,377437,3952
1705465175698,427906,377292,3929
1705465175714,427957,377294,3946
1705465175729,427928,377287,3929
1705465175745,427918,377318,3921
1705465175761,427984,377254,3945
1705465175776,427932,377318,3933
1705465175801,427978,377305,3927
1705465175817,427988,377222,3946
1705465175832,427904,377247,4023
1705465175848,427978,377282,3949
1705465175864,427931,377232,3969
1705465175879,427991,377267,3931
1705465175888,427923,377286,3946
1705465175904,427995,377261,3886
1705465175919,427864,377284,3944
1705465175935,427955,377347,3944
1705465175951,427921,377287,3884
1705465175966,428000,377268,3945
1705465175983,427996,377321,3917
1705465175999,428055,377343,3936
1705465176014,427968,377219,3970
1705465176030,427945,377335,3979
1705465176046,428048,377273,3946
1705465176061,427961,377233,3945
1705465176083,427944,377300,3947
1705465176099,427982,377325,3946
1705465176114,428101,377397,3972
1705465176130,427988,377379,3946
1705465176146,428040,377456,3946
1705465176161,428129,377390,3885
1705465176173,428080,377535,3966
1705465176189,428084,377437,3905
1705465176204,428114,377461,3921
1705465176220,428095,377446,3930
1705465176236,428192,377481,3920
1705465176251,428234,377525,3950
1705465176268,428249,377579,3965
1705465176284,428235,377577,3979
1705465176299,428262,377489,3948
1705465176315,428247,377633,4034
1705465176331,428141,377596,3947
1705465176346,428204,377444,3960
1705465176353,428170,377499,3963
1705465176369,428063,377468,3947
1705465176384,428071,377393,3875
1705465176400,428011,377390,3944
1705465176416,428055,377389,3922
1705465176431,427995,377315,3865
1705465176444,427961,377288,3925
1705465176460,427950,377279,3933
1705465176475,427924,377180,3896
1705465176491,427936,377088,3945
1705465176507,427889,377252,3978
1705465176522,427930,377188,3944
1705465176564,427865,377208,3946
1705465176580,427921,377193,4023
1705465176595,427875,377175,3946
1705465176611,427875,377204,3887
1705465176627,427812,377187,3969
1705465176642,427821,377229,3951
1705465176642,427886,377160,3951
1705465176658,427763,377181,3944
1705465176673,427858,377226,3971
1705465176689,427844,377109,3949
1705465176705,427940,377118,3944
1705465176720,427852,377166,3912
1705465176732,427930,377144,3946
1705465176748,427902,377146,3952
1705465176763,427941,377198,3992
1705465176779,427953,377168,3944
1705465176795,427945,377207,3980
1705465176810,427899,377181,3945
1705465176819,427969,377191,3943
1705465176835,427920,377208,3954
1705465176850,427874,377213,3967
1705465176866,428006,377270,3927
1705465176882,428012,377274,3885
1705465176897,427895,377331,3946
1705465176928,428068,377339,3951
1705465176944,428072,377261,3954
1705465176959,428014,377302,3944
1705465176975,427997,377353,3895
1705465176991,428088,377288,3946
1705465177006,428081,377280,4006
1705465177016,428010,377364,3946
1705465177032,428092,377320,3967
1705465177047,428093,377354,4022
1705465177063,428109,377360,3947
1705465177079,428086,377339,3947
1705465177094,428074,377375,3976
1705465177104,428140,377437,3948
1705465177120,428140,377435,3868
1705465177135,428094,377407,3962
1705465177151,428065,377357,3966
1705465177167,428055,377343,3866
1705465177182,428038,377291,3948
1705465177208,427995,377232,3935
1705465177224,428023,377272,3894
1705465177239,428022,377173,3945
1705465177255,427958,377163,3997
1705465177271,427993,377210,3946
1705465177286,427920,377154,3957
1705465177300,427859,377213,3952
1705465177316,427823,377136,3945
1705465177331,427794,377145,3945
1705465177347,427758,377096,3949
1705465177363,427808,377163,3980
1705465177378,427897,377065,3934
1705465177389,427860,377115,3943
1705465177405,427800,377065,3914
1705465177420,427799,377039,3869
1705465177436,427828,377070,3937
1705465177452,427793,377042,3894
1705465177467,427909,377035,3946
1705465177482,427816,377067,3943
1705465177498,427802,377022,4012
1705465177513,427872,376983,3944
1705465177529,427876,377136,3991
1705465177545,427821,377137,3976
1705465177560,427902,377108,3946
1705465177573,427927,377102,3948
1705465177589,427803,377123,3944
1705465177604,427898,377174,3943
1705465177620,427881,377173,3942
1705465177636,427854,377214,3953
1705465177651,427915,377156,3926
1705465177677,427981,377180,3961
1705465177693,427957,377218,3928
1705465177708,427941,377213,3899
1705465177724,428055,377167,3943
1705465177740,428002,377204,3955
1705465177755,428096,377263,3989
1705465177764,428053,377252,3953
1705465177780,428062,377267,4022
1705465177795,427974,377265,3948
1705465177811,428050,377228,3949
1705465177827,428090,377293,3920
1705465177842,427963,377369,3948
1705465177857,428039,377349,3948
1705465177873,427929,377352,3945
1705465177888,428149,377375,3916
1705465177904,428123,377370,3952
1705465177920,428187,377424,3950
1705465177935,428080,377444,3908
1705465177948,428177,377379,3915
1705465177964,428095,377179,3970
1705465177979,428037,377263,4014
1705465177995,428018,377238,3943
1705465178011,428035,377163,3946
1705465178026,427990,377162,3993
1705465178049,427963,377123,3947
1705465178065,427886,377135,3961
1705465178080,427804,377114,3947
1705465178096,427832,377119,3943
1705465178112,427850,377097,3881
1705465178127,427710,377081,3942
1705465178141,427791,377025,3928
1705465178157,427797,377010,3925
1705465178172,427806,377020,3927
1705465178188,427862,377013,3904
1705465178204,427897,377062,3944
1705465178219,427764,376892,3926
1705465178229,427805,377053,3943
1705465178245,427788,376924,3946
1705465178260,427806,377048,4031
1705465178276,427843,377055,3953
1705465178292,427768,377055,3943
1705465178307,427814,377051,3964
1705465178320,427836,377131,3946
1705465178336,427826,377089,3843
1705465178351,427801,377059,3947
1705465178367,427808,377081,3896
1705465178383,427833,376989,3857
1705465178398,427959,376963,3946
1705465178427,427805,377023,3939
1705465178443,427878,377094,3911
1705465178458,427889,376949,3945
1705465178474,427870,377072,4006
1705465178490,427843,377129,3945
1705465178505,427897,377041,3943
1705465178517,427836,377101,3945
1705465178533,427872,377144,3944
1705465178548,427894,377174,3940
1705465178564,427890,377105,3945
1705465178580,427955,377214,3966
1705465178595,427928,377144,3883
1705465178603,427974,377170,3918
1705465178619,427926,377244,3912
1705465178634,428002,377190,3862
1705465178650,427930,377182,3945
1705465178666,427959,377222,3919
1705465178681,428133,377264,3945
1705465178710,428017,377282,3923
1705465178726,428042,377267,4012
1705465178741,428061,377203,3947
1705465178757,427953,377209,3962
1705465178773,427870,377179,3970
1705465178788,427993,377152,3944
1705465178801,427881,377161,3914
1705465178817,427770,377136,3940
1705465178832,427845,377153,3964
1705465178848,427835,377067,3951
1705465178864,427692,377114,3945
1705465178879,427782,377096,3883
1705465178892,427831,377008,3960
1705465178908,427795,377011,3944
1705465178923,427768,376962,3891
1705465178939,427800,377033,3946
1705465178955,427746,376892,4002
1705465178970,427785,377056,3949
1705465178980,427747,376972,3915
1705465178996,427788,376996,4000
1705465179011,427711,376994,3942
1705465179027,427782,377049,3944
1705465179043,427763,377009,3964
1705465179058,427705,377035,3941
1705465179074,427734,376952,3907
1705465179090,427734,376980,3959
1705465179105,427790,377066,3969
1705465179121,427800,377002,3922
1705465179137,427847,377034,3945
1705465179152,427764,377035,3925
1705465179175,427828,377068,3962
1705465179191,427840,377045,3935
1705465179206,427798,377067,4010
1705465179222,427906,377082,3967
1705465179238,427785,377036,3945
1705465179253,427844,377125,4014
1705465179264,427942,377095,3932
1705465179280,427935,377201,3941
1705465179295,427861,377136,3966
1705465179311,427885,377172,3942
1705465179327,428000,377187,3889
1705465179342,427851,377237,3947
1705465179370,427904,377232,3939
1705465179386,428007,377220,3867
1705465179401,428039,377261,3939
1705465179417,427958,377264,3891
1705465179433,428117,377292,3934
1705465179448,428055,377215,3927
1705465179450,428123,377316,3943
1705465179466,428106,377351,3945
1705465179481,428072,377332,3992
1705465179497,427995,377388,3912
1705465179513,428146,377361,3948
1705465179528,428095,377429,3940
1705465179534,428089,377419,3964
1705465179550,428056,377427,3954
1705465179565,428020,377343,3885
1705465179581,428034,377283,3914
1705465179597,427993,377250,3864
1705465179612,428020,377245,3945
1705465179642,428005,377167,3942
1705465179658,427942,377210,3892
1705465179673,428033,377139,3944
1705465179689,427944,377232,3971
1705465179705,427962,377164,3989
1705465179720,427902,377106,3946
1705465179734,427900,377208,3941
1705465179750,427866,377167,3944
1705465179765,427870,377207,3978
1705465179781,427933,377225,3943
1705465179797,427814,377213,3946
1705465179812,427908,377154,3937
1705465179822,427880,377199,3934
1705465179838,427947,377245,3920
1705465179853,427921,377151,3861
1705465179869,427871,377169,3947
1705465179885,427907,377198,3896
1705465179900,427989,377210,3932
1705465179924,427998,377205,3984
1705465179940,427919,377183,4022
1705465179955,428030,377247,3943
1705465179971,428017,377218,3942
1705465179987,427983,377258,3982
1705465180002,427932,377255,3966
1705465180018,427970,377347,3971
1705465180034,427921,377314,3945
1705465180049,428068,377393,3948
1705465180065,428007,377268,3973
1705465180081,427929,377364,3943
1705465180096,428095,377335,3897
1705465180107,428092,377301,3923
1705465180123,428103,377373,3926
1705465180138,428084,377318,3898
1705465180154,428115,377354,3945
1705465180170,428099,377238,3945
1705465180185,428105,377321,3990
1705465180194,428098,377310,3946
1705465180210,428091,377419,4030
1705465180225,428112,377402,3945
1705465180241,428179,377436,3929
1705465180257,428140,377465,3967
1705465180272,428092,377499,3945
1705465180305,428213,377471,3891
1705465180321,428193,377528,3937
1705465180336,428188,377580,3924
1705465180352,428233,377506,3863
1705465180368,428258,377487,3947
1705465180383,428201,377471,3926
1705465180392,428205,377424,3946
1705465180408,428177,377318,3944
1705465180423,428145,377375,4026
1705465180439,428176,377358,3946
1705465180455,428135,377297,3944
1705465180470,428117,377378,4021
1705465180480,428035,377284,3944
1705465180496,428089,377313,3972
1705465180511,427976,377302,3967
1705465180527,428013,377327,3944
1705465180543,428084,377294,3881
1705465180558,427936,377273,3943
1705465180587,428078,377328,3959
1705465180603,428001,377351,3862
1705465180618,428061,377282,3944
1705465180634,428058,377270,3913
1705465180650,428085,377261,3946
1705465180665,428053,377184,3927
1705465180674,428008,377279,3943
1705465180690,428099,377234,3944
1705465180705,428024,377271,3981
1705465180721,428017,377291,3964
1705465180737,428047,377222,3945
1705465180752,428051,377284,3964
1705465180764,428053,377300,3917
1705465180780,427973,377341,3977
1705465180795,428030,377279,3881
1705465180811,428067,377331,3944
1705465180827,428066,377359,3886
1705465180842,428107,377359,3954
1705465180859,428143,377340,3955
1705465180875,428123,377411,3900
1705465180890,428191,377349,3946
1705465180906,428161,377308,3958
1705465180922,428165,377403,3972
1705465180937,428174,377320,3944
1705465180947,428176,377343,3924
1705465180963,428102,377434,3945
1705465180978,428130,377343,3943
1705465180994,428183,377403,3947
1705465181010,428093,377444,3945
1705465181025,428189,377432,3869
1705465181050,428136,377413,3943
1705465181066,428210,377521,3944
1705465181081,428284,377453,3865
1705465181097,428267,377436,3965
1705465181113,428216,377457,3929
1705465181128,428273,377498,3895
1705465181140,428278,377464,3937
1705465181156,428264,377476,4000
1705465181171,428286,377483,3945
1705465181187,428166,377457,3943
1705465181203,428221,377407,4021
1705465181218,428141,377352,3944
1705465181232,428194,377414,3937
1705465181248,428078,377347,3967
1705465181263,428128,377403,3977
1705465181279,428064,377307,3948
1705465181295,427959,377341,3912
1705465181310,428082,377315,3926
1705465181323,428118,377282,3944
1705465181339,428092,377260,3944
1705465181354,428049,377252,3895
1705465181370,428134,377256,3922
1705465181386,428062,377284,3959
1705465181401,428077,377312,3989
1705465181409,428068,377236,3944
1705465181425,428038,377304,3990
1705465181440,428000,377270,3976
1705465181456,428046,377346,3937
1705465181472,428052,377307,3953
1705465181487,427971,377287,3946
1705465181518,428089,377303,3944
1705465181534,428069,377313,3883
1705465181549,427947,377377,3955
1705465181565,428061,377353,3864
1705465181581,428143,377315,3945
1705465181596,428092,377341,3942
1705465181608,428039,377303,3944
1705465181624,428194,377249,3945
1705465181639,428162,377370,3972
1705465181655,428225,377360,3944
1705465181671,428124,377331,3967
1705465181686,428173,377392,4005
1705465181694,428126,377323,3946
1705465181710,428131,377313,3951
1705465181725,428153,377396,3970
1705465181741,428201,377410,3967
1705465181757,428171,377386,3886
1705465181772,428142,377426,3947
1705465181801,428229,377375,3916
1705465181817,428201,377464,3825
1705465181832,428284,377401,3946
1705465181848,428240,377452,3945
1705465181864,428273,377486,3934
1705465181879,428299,377406,3970
1705465181904,428263,377510,3961
1705465181920,428364,377517,3945
1705465181935,428304,377493,3946
1705465181951,428260,377595,3941
1705465181967,428235,377473,3944
1705465181982,428218,377503,3940
1705465181982,428211,377450,3909
1705465181998,428214,377457,3944
1705465182013,428146,377341,3884
1705465182029,428126,377385,3920
1705465182045,428108,377345,3871
1705465182060,428077,377307,3925
1705465182069,428156,377329,3942
1705465182085,428017,377288,3897
1705465182100,428095,377288,3942
1705465182116,428041,377260,3980
1705465182132,428037,377192,3989
1705465182147,428084,377153,3937
1705465182177,428016,377245,4003
1705465182193,428055,377241,3945
1705465182208,428098,377320,3945
1705465182224,427996,377260,3963
1705465182240,427936,377308,3945
1705465182255,428074,377255,3880
1705465182266,427999,377189,3933
1705465182282,427996,377247,3916
1705465182297,427975,377185,3877
1705465182313,428073,377203,3943
1705465182329,428018,377205,3926
1705465182344,428000,377204,3894
1705465182354,428020,377216,3943
1705465182370,428027,377221,4056
1705465182385,428133,377243,3943
1705465182401,428075,377228,3962
1705465182417,428094,377263,4022
1705465182432,428057,377283,3942
1705465182447,428079,377188,3922
1705465182463,428037,377254,3969
1705465182478,428119,377270,3967
1705465182494,428143,377262,3899
1705465182510,428038,377304,3943
1705465182525,428149,377356,3972
1705465182551,428106,377253,3948
1705465182567,428149,377274,3945
1705465182582,428117,377362,3916
1705465182598,428198,377305,3945
1705465182614,428134,377262,3928
1705465182629,428181,377354,4012
1705465182638,428157,377315,3917
1705465182654,428095,377320,3980
1705465182669,428110,377318,3972
1705465182685,428153,377336,3946
1705465182701,428215,377383,3984
1705465182716,428131,377435,3945
1705465182733,428204,377458,3944
1705465182749,428230,377412,3881
1705465182764,428058,377394,3943
1705465182780,428118,377370,3886
1705465182796,428148,377281,3950
1705465182811,428092,377250,3922
1705465182833,428089,377296,3941
1705465182849,428124,377223,3943
1705465182864,428064,377157,4003
1705465182880,428033,377187,3944
1705465182896,428029,377113,3941
1705465182911,427941,377112,4019
1705465182924,427910,377101,3940
1705465182940,427913,377034,3940
1705465182955,427945,377043,3963
1705465182971,427946,377160,3939
1705465182987,427822,377023,3873
1705465183002,427808,377052,3956
1705465183016,427985,377056,3950
1705465183032,427886,376979,3855
1705465183047,427971,377085,3938
1705465183063,427940,377016,3930
1705465183079,427928,377043,3897
1705465183094,427886,376967,3934
1705465183106,427884,377020,3942
1705465183122,427924,377006,3942
1705465183137,427834,376929,3940
1705465183153,427888,377012,3941
1705465183169,427833,376980,3942
1705465183184,427869,377089,3939
1705465183209,427853,377011,3959
1705465183225,427932,377077,3986
1705465183240,427872,377031,3877
1705465183256,427808,377050,3911
1705465183272,427805,377035,3937
1705465183287,427928,377004,3863
1705465183304,427865,377040,3938
1705465183320,427912,377004,3890
1705465183335,427938,376985,3940
1705465183351,427919,377043,3915
1705465183367,427879,377022,4006
1705465183382,427949,377051,3944
1705465183393,427876,377048,3906
1705465183409,427870,377082,3971
1705465183424,427874,377023,3941
1705465183440,427915,377073,3991
1705465183456,427929,377137,3919
1705465183471,427964,377111,3944
1705465183485,427970,377121,3919
1705465183501,427868,377206,3952
1705465183516,427961,377153,3861
1705465183532,428065,377162,3941
1705465183548,427949,377100,3914
1705465183563,427965,377086,3895
1705465183569,427887,377013,3931
1705465183585,427939,376998,3950
1705465183600,427899,376991,3981
1705465183616,427817,376940,3939
1705465183632,427824,376967,3997
1705465183647,427738,376981,3940
1705465183691,427795,376961,3940
1705465183707,427743,376910,3964
1705465183722,427741,376943,3940
1705465183738,427762,376836,3874
1705465183754,427673,376822,3939
1705465183769,427683,376881,3918
1705465183768,427665,376853,3955
1705465183784,427717,376794,3940
1705465183799,427703,376888,3914
1705465183815,427788,376869,3940
1705465183831,427698,376756,3963
1705465183846,427721,376828,4006
1705465183854,427687,376804,3960
1705465183870,427664,376805,3962
1705465183885,427736,376842,3976
1705465183901,427732,376831,3940
1705465183917,427728,376843,3964
1705465183932,427686,376889,3941
1705465183947,427701,376896,3890
1705465183963,427770,376828,3889
1705465183978,427640,376880,3940
1705465183994,427746,376906,3842
1705465184010,427727,376863,3933
1705465184025,427824,376930,3929
1705465184050,427734,376908,3977
1705465184066,427874,376850,3940
1705465184081,427784,376831,3958
1705465184097,427762,376875,3947
1705465184113,427841,376921,3953
1705465184128,427816,376980,4003
1705465184142,427813,376898,3941
1705465184158,427796,376940,3941
1705465184173,427844,377001,3963
1705465184189,427876,376930,3942
1705465184205,427863,376963,3895
1705465184220,427820,377024,3941
1705465184230,427871,376990,3928
1705465184246,427854,377021,3874
1705465184261,427913,377087,3942
1705465184277,427873,377061,3958
1705465184293,427945,377056,3891
1705465184308,427989,377004,3942
1705465184322,427972,377117,3989
1705465184338,427999,377028,3940
1705465184353,427903,376988,3941
1705465184369,427883,376986,3959
1705465184385,427763,376977,3941
1705465184400,427803,377029,3935
1705465184426,427782,376940,3939
1705465184442,427689,376907,3948
1705465184457,427758,376876,3922
1705465184473,427611,376856,3984
1705465184489,427690,376922,3966
1705465184504,427633,376767,3859
1705465184514,427668,376759,3928
1705465184530,427607,376764,3909
1705465184545,427727,376727,3947
1705465184561,427621,376699,3921
1705465184577,427622,376740,4006
1705465184592,427690,376695,3939
1705465184607,427615,376752,3964
1705465184623,427532,376698,3966
1705465184638,427633,376713,3962
1705465184654,427602,376720,3944
1705465184670,427581,376729,3940
1705465184685,427606,376759,3973
1705465184698,427615,376681,3915
1705465184714,427528,376802,3941
1705465184729,427600,376786,3880
1705465184745,427690,376760,3941
1705465184761,427594,376754,3939
1705465184776,427643,376725,3889
1705465184785,427662,376768,3942
1705465184801,427589,376652,4003
1705465184816,427702,376745,3967
1705465184832,427670,376696,3944
1705465184848,427708,376790,4019
1705465184863,427636,376804,3919
1705465184892,427709,376832,3967
1705465184908,427690,376799,3955
1705465184923,427547,376840,3938
1705465184939,427675,376747,3862
1705465184955,427531,376706,3940
1705465184970,427589,376768,3964
1705465184982,427581,376758,3940
1705465184998,427604,376685,3941
1705465185013,427690,376748,3925
1705465185029,427728,376730,3940
1705465185045,427674,376688,3935
1705465185060,427650,376781,4008
1705465185072,427738,376827,3940
1705465185088,427680,376757,3941
1705465185103,427658,376847,4016
1705465185119,427673,376712,3941
1705465185135,427629,376874,3952
1705465185150,427529,376747,3951
1705465185160,427638,376743,3947
1705465185176,427591,376680,3878
1705465185191,427476,376710,3940
1705465185207,427526,376701,3918
1705465185223,427582,376626,3863
1705465185238,427539,376612,3931
1705465185268,427400,376590,3909
1705465185284,427525,376562,3940
1705465185299,427454,376462,3962
1705465185315,427423,376504,3966
1705465185331,427505,376483,3940
1705465185346,427418,376549,3986
1705465185357,427408,376517,3939
1705465185373,427466,376528,3941
1705465185388,427458,376559,3959
1705465185404,427445,376572,3939
1705465185420,427482,376595,3938
1705465185435,427409,376593,3883
1705465185445,427463,376550,3951
1705465185461,427437,376493,3859
1705465185476,427495,376522,3942
1705465185492,427485,376551,3918
1705465185508,427409,376520,3917
1705465185523,427550,376480,3940
1705465185550,427491,376495,3976
1705465185566,427566,376543,3941
1705465185581,427472,376489,3940
1705465185597,427513,376547,3988
1705465185613,427476,376558,3941
1705465185628,427494,376584,3946
1705465185644,427534,376545,3957
1705465185660,427511,376682,3940
1705465185675,427524,376606,3881
1705465185691,427478,376612,3942
1705465185707,427539,376721,3942
1705465185722,427590,376641,3862
1705465185729,427502,376642,3941
1705465185745,427600,376672,3892
1705465185760,427646,376640,3928
1705465185776,427597,376629,3943
1705465185792,427571,376605,4010
1705465185807,427655,376563,3939
1705465185823,427588,376631,3892
1705465185839,427553,376596,3958
1705465185854,427576,376615,3940
1705465185870,427638,376686,3931
1705465185886,427638,376671,3941
1705465185901,427601,376758,3946
1705465185923,427596,376634,3917
1705465185939,427447,376664,3938
1705465185954,427527,376576,3878
1705465185970,427528,376575,3927
1705465185986,427493,376587,3940
1705465186001,427466,376431,3889
1705465186013,427461,376474,3939
1705465186029,427413,376422,3939
1705465186044,427400,376429,3987
1705465186060,427462,376378,3936
1705465186076,427372,376428,4000
1705465186091,427285,376366,3936
1705465186107,427335,376382,3951
1705465186123,427345,376363,3963
1705465186138,427279,376432,3938
1705465186154,427336,376417,3841
1705465186170,427315,376342,3940
1705465186185,427335,376398,3927
1705465186210,427327,376258,3945
1705465186226,427408,376334,3940
1705465186241,427327,376324,3920
1705465186257,427475,376370,3941
1705465186273,427385,376207,3941
1705465186288,427351,376355,4024
1705465186300,427384,376388,3903
1705465186316,427398,376304,3938
1705465186331,427345,376394,4016
1705465186347,427338,376341,3957
1705465186363,427363,376424,3974
1705465186378,427351,376381,3964
1705465186388,427384,376439,3948
1705465186404,427440,376468,3898
1705465186419,427416,376445,3943
1705465186435,427420,376433,3922
1705465186451,427465,376441,3860
1705465186466,427424,376450,3941
1705465186482,427423,376477,3904
1705465186498,427494,376502,3945
1705465186513,427504,376400,3941
1705465186529,427468,376465,3962
1705465186545,427573,376501,3942
1705465186560,427577,376542,3966
1705465186574,427454,376462,3912
1705465186590,427509,376490,3967
1705465186605,427464,376547,3949
1705465186621,427495,376543,3940
1705465186637,427630,376615,3973
1705465186652,427555,376595,3880
1705465186659,427582,376652,3922
1705465186675,427631,376678,3897
1705465186690,427743,376666,3951
1705465186706,427692,376727,3921
1705465186722,427591,376635,3890
1705465186737,427621,376580,3949
1705465186766,427509,376616,3977
1705465186782,427554,376616,3968
1705465186797,427502,376425,3939
1705465186813,427475,376533,3987
1705465186829,427449,376477,3941
1705465186844,427440,376526,3964
1705465186857,427383,376423,3941
1705465186873,427388,376475,3942
1705465186888,427418,376482,3863
1705465186904,427367,376426,3942
1705465186920,427420,376359,3940
1705465186935,427445,376394,3876
1705465186943,427459,376403,3910
1705465186959,427401,376378,3922
1705465186974,427431,376415,3892
1705465186990,427408,376347,3937
1705465187006,427413,376392,4009
1705465187021,427477,376444,3940
1705465187049,427386,376381,3924
1705465187065,427391,376370,4020
1705465187080,427406,376401,3942
1705465187096,427421,376396,3926
1705465187112,427392,376406,3962
1705465187127,427463,376455,4001
1705465187141,427452,376425,3977
1705465187157,427385,376484,3942
1705465187172,427490,376510,3909
1705465187188,427506,376522,3927
1705465187204,427479,376457,3938
1705465187219,427571,376485,3893
1705465187235,427505,376518,3943
1705465187251,427550,376429,3969
1705465187266,427532,376537,3987
1705465187282,427587,376474,3942
1705465187298,427602,376570,3988
1705465187313,427501,376605,3973
1705465187318,427593,376594,3942
1705465187334,427593,376584,3953
1705465187349,427470,376594,3942
1705465187365,427538,376531,3917
1705465187381,427460,376491,3883
1705465187396,427453,376585,3949
1705465187424,427448,376562,3901
1705465187440,427614,376499,3943
1705465187455,427542,376570,3924
1705465187471,427617,376596,3957
1705465187487,427674,376564,3942
1705465187502,427667,376606,3930
1705465187517,427639,376673,3949
1705465187533,427585,376546,3942
1705465187548,427614,376599,3992
1705465187564,427525,376544,3941
1705465187580,427574,376480,3949
1705465187595,427532,376529,3926
1705465187604,427541,376502,3939
1705465187620,427413,376439,3882
1705465187635,427366,376426,3943
1705465187651,427442,376420,3933
1705465187667,427367,376381,3854
1705465187682,427451,376372,3941
1705465187698,427370,376381,3911
1705465187714,427431,376309,3943
1705465187729,427441,376214,3964
1705465187745,427359,376352,3973
1705465187761,427369,376335,3941
1705465187776,427359,376231,3940
1705465187800,427330,376341,3957
1705465187816,427409,376263,3940
1705465187831,427332,376288,3969
1705465187847,427278,376340,3963
1705465187863,427420,376399,3959
1705465187878,427357,376326,3879
1705465187888,427353,376293,3939
1705465187904,427414,376346,3843
1705465187919,427388,376333,3922
1705465187935,427454,376341,3925
1705465187951,427423,376386,3896
1705465187966,427537,376340,3941
1705465187982,427408,376395,3954
1705465187998,427464,376402,3955
1705465188013,427451,376305,3940
1705465188029,427489,376383,4027
1705465188045,427459,376405,3942
1705465188060,427510,376393,3941
1705465188072,427496,376454,3943
1705465188088,427467,376498,3943
1705465188103,427507,376468,3880
1705465188119,427480,376535,3942
1705465188135,427486,376535,3918
1705465188150,427526,376449,3861
1705465188159,427490,376533,3907
1705465188175,427586,376464,3880
1705465188190,427565,376477,3889
1705465188206,427553,376485,3916
1705465188222,427637,376507,3987
1705465188237,427691,376554,3942
1705465188267,427688,376610,3954
1705465188283,427647,376563,4009
1705465188298,427657,376546,3942
1705465188314,427666,376663,3915
1705465188330,427593,376645,3968
1705465188345,427694,376662,3949
1705465188360,427543,376641,3953
1705465188376,427525,376468,3945
1705465188391,427553,376617,3970
1705465188407,427577,376509,3942
1705465188423,427561,376494,3942
1705465188438,427523,376485,3882
1705465188447,427492,376400,3944
1705465188463,427475,376356,3924
1705465188478,427481,376392,4009
1705465188494,427499,376403,3942
1705465188510,427443,376345,3964
1705465188525,427405,376375,3962
1705465188535,427461,376461,3941
1705465188551,427445,376387,3970
1705465188566,427359,376361,3942
1705465188582,427410,376397,3942
1705465188598,427450,376368,3878
1705465188613,427468,376460,3939
1705465188643,427443,376307,3899
1705465188659,427535,376368,3948
1705465188674,427427,376336,3925
1705465188690,427402,376372,3902
1705465188706,427523,376320,3941
1705465188721,427503,376342,3975
1705465188734,427446,376355,3941
1705465188750,427517,376349,3939
1705465188765,427520,376382,4018
1705465188781,427457,376450,3942
1705465188797,427516,376488,3943
1705465188812,427537,376450,3964
1705465188820,427539,376449,3940
1705465188836,427558,376500,3931
1705465188851,427466,376488,3956
1705465188867,427584,376499,3949
1705465188883,427592,376533,3861
1705465188898,427597,376571,3945
1705465188924,427650,376552,3946
1705465188940,427692,376556,3896
1705465188955,427631,376525,3918
1705465188971,427716,376622,3976
1705465188987,427703,376571,3943
1705465189002,427687,376555,3953
1705465189029,427624,376635,3964
1705465189045,427684,376580,3944
1705465189060,427683,376708,3942
1705465189076,427657,376698,3946
1705465189092,427839,376743,3976
1705465189107,427772,376749,3926
1705465189104,427745,376795,3943
1705465189120,427818,376818,3921
1705465189135,427785,376778,3941
1705465189151,427758,376752,3941
1705465189167,427664,376663,3896
1705465189182,427762,376689,3944
1705465189197,427660,376596,3943
1705465189213,427668,376653,4011
1705465189228,427710,376571,3941
1705465189244,427573,376571,3962
1705465189260,427523,376558,3972
1705465189275,427554,376522,3943
1705465189300,427575,376515,3928
1705465189316,427475,376614,3942
1705465189331,427554,376538,3961
1705465189347,427498,376540,3942
1705465189363,427485,376563,3950
1705465189378,427567,376560,3862
1705465189392,427545,376540,3982
1705465189408,427531,376554,3925
1705465189423,427522,376503,3901
1705465189439,427551,376461,3939
1705465189455,427568,376500,3953
1705465189470,427507,376525,3984
1705465189478,427517,376529,3949
1705465189494,427513,376530,4017
1705465189509,427429,376537,3942
1705465189525,427573,376483,3949
1705465189541,427563,376506,3924
1705465189556,427486,376589,3941
1705465189585,427542,376524,3934
1705465189601,427504,376560,3943
1705465189616,427555,376633,3918
1705465189632,427627,376543,3948
1705465189648,427633,376566,3942
1705465189663,427589,376583,3907
1705465189673,427632,376603,3940
1705465189689,427619,376476,3969
1705465189704,427572,376625,3978
1705465189720,427663,376652,3958
1705465189736,427627,376608,3943
1705465189751,427596,376638,3989
1705465189764,427625,376574,3971
1705465189780,427705,376711,3969
1705465189795,427547,376628,3943
1705465189811,427593,376671,3915
1705465189827,427658,376647,3883
1705465189842,427677,376748,3936
1705465189857,427698,376698,3903
1705465189873,427722,376714,3914
1705465189888,427796,376787,3924
1705465189904,427726,376789,3919
1705465189920,427777,376779,3943
1705465189935,427673,376653,3942
1705465189948,427710,376686,3926
1705465189964,427682,376632,3945
1705465189979,427589,376604,4001
1705465189995,427558,376534,3920
1705465190011,427610,376560,3941
1705465190026,427605,376564,3961
1705465190034,427561,376584,3936
1705465190050,427534,376530,3879
1705465190065,427481,376466,3943
1705465190081,427490,376496,3913
1705465190097,427434,376479,3861
1705465190112,427476,376446,3942
1705465190142,427494,376473,3942
1705465190158,427490,376441,3914
1705465190173,427500,376358,3942
1705465190189,427459,376445,4025
1705465190205,427542,376468,3941
1705465190220,427421,376388,3938
1705465190232,427383,376387,3939
1705465190248,427376,376472,3942
1705465190263,427430,376437,3921
1705465190279,427436,376430,3957
1705465190295,427455,376492,3951
1705465190310,427520,376435,3880
1705465190318,427456,376398,3935
1705465190334,427499,376510,3941
1705465190349,427489,376448,3859
1705465190365,427560,376428,3940
1705465190381,427440,376471,3913
1705465190396,427615,376425,3940
1705465190425,427475,376470,3952
1705465190441,427512,376438,3988
1705465190456,427539,376437,3941
1705465190472,427533,376503,3994
1705465190488,427464,376472,3969
1705465190503,427503,376456,3941
1705465190518,427546,376493,3913
1705465190534,427516,376481,3942
1705465190549,427554,376564,3977
1705465190565,427564,376445,3950
1705465190581,427428,376598,3942
1705465190596,427605,376582,3892
1705465190609,427595,376562,3939
1705465190625,427558,376552,3941
1705465190640,427629,376580,3896
1705465190656,427620,376581,3945
1705465190672,427621,376552,3968
1705465190687,427656,376645,3969
1705465190695,427651,376644,3941
1705465190711,427709,376611,3969
1705465190726,427587,376638,3942
1705465190742,427559,376565,3941
1705465190758,427584,376546,3961
1705465190773,427489,376627,3945
1705465190800,427576,376490,3872
1705465190816,427478,376464,3954
1705465190831,427509,376491,3967
1705465190847,427416,376439,3966
1705465190863,427532,376414,3943
1705465190878,427506,376415,3925
1705465190893,427379,376380,3965
1705465190909,427396,376294,3891
1705465190924,427409,376307,4005
1705465190940,427435,376267,3941
1705465190956,427387,376266,3940
1705465190971,427420,376321,3999
1705465190980,427390,376290,3940
1705465190996,427401,376355,3939
1705465191011,427269,376329,3947
1705465191027,427355,376241,3973
1705465191043,427334,376273,3879
1705465191058,427298,376331,3940
1705465191072,427349,376228,3956
1705465191088,427353,376330,3863
1705465191103,427423,376268,3935
1705465191119,427379,376239,3902
1705465191135,427459,376323,3940
1705465191150,427392,376205,3940
1705465191175,427381,376270,3945
1705465191191,427465,376297,3942
1705465191206,427365,376280,3987
1705465191222,427314,376291,3943
1705465191238,427394,376312,3939
1705465191253,427482,376313,3962
1705465191265,427435,376305,3873
1705465191281,427426,376366,3943
1705465191296,427415,376317,3950
1705465191312,427450,376356,3967
1705465191328,427407,376366,3862
1705465191343,427456,376340,3940
1705465191359,427472,376344,3964
1705465191375,427464,376351,3893
1705465191390,427483,376287,3942
1705465191406,427397,376303,3968
1705465191422,427516,376403,3983
1705465191437,427517,376325,3943
1705465191447,427466,376467,3944
1705465191463,427467,376395,3928
1705465191478,427529,376393,3949
1705465191494,427566,376433,3941
1705465191510,427460,376505,3942
1705465191525,427496,376450,3882
1705465191536,427469,376449,3931
1705465191552,427488,376444,3914
1705465191567,427473,376376,3920
1705465191583,427500,376332,3959
1705465191599,427424,376332,3895
1705465191614,427421,376300,3927
1705465191638,427390,376330,3993
1705465191654,427422,376262,4009
1705465191669,427348,376232,3943
1705465191685,427371,376175,3943
1705465191701,427297,376202,3986
1705465191716,427300,376090,3935
1705465191733,427267,376197,3970
1705465191749,427256,376198,3930
1705465191764,427377,376251,3946
1705465191780,427331,376150,3918
1705465191796,427207,376192,3960
1705465191811,427255,376152,3892
1705465191823,427280,376187,3940
1705465191839,427329,376135,3924
1705465191854,427263,376156,3917
1705465191870,427314,376110,3940
1705465191886,427236,376031,3941
1705465191901,427289,376116,3985
1705465191909,427233,376119,3932
1705465191925,427288,376166,4026
1705465191940,427228,376118,3939
1705465191956,427264,376115,3953
1705465191972,427213,376027,3945
1705465191987,427099,376149,3941
1705465192018,427191,376051,3878
1705465192034,427186,376036,3941
1705465192049,427214,376091,3917
1705465192065,427193,376046,3882
1705465192081,427272,376065,3941
1705465192096,427242,376076,3921
1705465192107,427289,376138,3943
1705465192123,427310,376061,3939
1705465192138,427350,376150,3986
1705465192154,427386,376093,3940
1705465192170,427310,376004,3939
1705465192185,427355,376106,4018
1705465192193,427369,376131,3967
1705465192209,427385,376083,3917
1705465192224,427361,376137,3965
1705465192240,427358,376192,3940
1705465192256,427415,376138,3881
1705465192271,427308,376143,3940
1705465192298,427392,376168,3949
1705465192314,427475,376201,3850
1705465192329,427494,376209,3941
1705465192345,427409,376225,3895
1705465192361,427513,376205,3943
1705465192376,427366,376039,3947
1705465192393,427370,376098,3962
1705465192409,427348,376042,3939
1705465192424,427280,376078,3952
1705465192440,427273,376071,3939
1705465192456,427203,375970,3939
1705465192471,427215,375932,3964
1705465192480,427219,376009,3938
1705465192496,427231,376009,3974
1705465192511,427172,375886,3878
1705465192527,427138,375966,3941
1705465192543,427187,375913,3888
1705465192558,427250,375891,3948
1705465192572,427214,375870,3939
1705465192588,427205,375887,3920
1705465192603,427197,375857,3939
1705465192619,427183,375876,3977
1705465192635,427211,375853,3960
1705465192650,427200,375806,3940
1705465192675,427111,375858,3923
1705465192691,427085,375900,3939
1705465192706,427131,375804,3939
1705465192722,427194,375915,3947
1705465192738,427101,375994,3937
1705465192753,427194,375968,3861
1705465192766,427187,375921,3957
1705465192782,427180,375987,3964
1705465192797,427184,375910,3858
1705465192813,427139,375880,3948
1705465192829,427216,375946,3890
1705465192844,427235,375936,3892
1705465192853,427227,375925,3958
1705465192869,427234,376007,3986
1705465192884,427323,376021,3940
1705465192900,427233,376029,3940
1705465192916,427254,375973,4018
1705465192931,427192,375972,3929
1705465192948,427266,376011,3923
1705465192964,427221,376022,3960
1705465192979,427290,376115,3973
1705465192995,427308,376121,3963
1705465193011,427257,376117,3940
1705465193026,427331,376125,3911
1705465193051,427380,376126,3968
1705465193067,427326,376138,3941
1705465193082,427410,376174,3893
1705465193098,427401,376155,3940
1705465193114,427437,376081,3942
1705465193129,427423,376214,4007
1705465193139,427446,376148,3963
1705465193155,427397,376199,3989
1705465193170,427295,376176,3941
1705465193186,427411,376165,3940
1705465193202,427331,376183,3982
1705465193217,427256,376105,3942
1705465193245,427324,376121,3935
1705465193261,427319,376082,3879
1705465193276,427222,376147,3948
1705465193292,427293,376108,3838
1705465193308,427290,376019,3940
1705465193323,427236,376016,3930
1705465193322,427224,375978,3940
1705465193338,427226,375938,3941
1705465193353,427185,375973,3965
1705465193369,427249,375967,3938
1705465193385,427239,375954,3952
1705465193400,427235,375994,4017
1705465193410,427228,375974,3926
1705465193426,427256,375929,3945
1705465193441,427214,375970,3902
1705465193457,427164,375994,3940
1705465193473,427214,375953,3880
1705465193488,427185,375945,3940
1705465193517,427172,375989,3965
1705465193533,427254,376005,3859
1705465193548,427317,375956,3940
1705465193564,427255,375938,3913
1705465193580,427300,376022,3931
1705465193595,427251,375925,3965
1705465193608,427218,376001,3941
1705465193624,427389,376088,3960
1705465193639,427285,375990,3951
1705465193655,427279,376069,3943
1705465193671,427271,376039,3940
1705465193686,427304,376054,3951
1705465193699,427224,376101,3942
1705465193715,427347,376167,3951
1705465193730,427329,376067,3879
1705465193746,427304,376170,3950
1705465193762,427377,376082,3870
1705465193777,427433,376119,3919
1705465193785,427353,376150,3898
1705465193801,427376,376137,3891
1705465193816,427445,376169,3941
1705465193832,427347,376182,3957
1705465193848,427451,376189,3986
1705465193863,427452,376137,3944
1705465193891,427440,376282,3981
1705465193907,427403,376259,3929
1705465193922,427470,376262,3943
1705465193938,427483,376327,3977
1705465193954,427402,376396,3942
1705465193969,427463,376332,3879
1705465193983,427371,376285,3923
1705465193999,427349,376297,3914
1705465194014,427362,376216,3930
1705465194030,427397,376150,3941
1705465194046,427334,376179,3919
1705465194061,427294,376116,3890
1705465194069,427352,376074,3934
1705465194085,427324,376107,4001
1705465194100,427361,376099,3942
1705465194116,427280,376031,3932
1705465194132,427263,376069,4018
1705465194147,427231,376010,3940
1705465194176,427220,375968,3917
1705465194192,427148,376007,3962
1705465194207,427261,376037,3967
1705465194223,427231,376089,3914
1705465194239,427165,375989,3939
1705465194254,427286,376059,3967
1705465194280,427265,376034,3943
1705465194296,427279,376010,3941
1705465194311,427233,376038,3936
1705465194327,427327,375986,3939
1705465194343,427240,375937,3923
1705465194358,427179,375987,4008
1705465194355,427230,376006,3902
1705465194371,427179,375990,3979
1705465194386,427155,376035,3966
1705465194402,427260,376005,3940
1705465194418,427260,376023,3958
1705465194433,427190,376034,3942
1705465194447,427246,376019,3944
1705465194463,427312,376064,3876
1705465194478,427183,376059,3938
1705465194494,427249,376056,3882
1705465194510,427342,376049,3943
1705465194525,427272,376083,3921
1705465194549,427326,376042,3939
1705465194565,427400,376068,3941
1705465194580,427358,376029,3987
1705465194596,427353,376062,3942
1705465194612,427367,376019,3940
1705465194627,427315,376120,4019
1705465194642,427328,376116,3936
1705465194658,427331,376142,3960
1705465194673,427291,376134,3963
1705465194689,427370,376243,3942
1705465194705,427402,376194,3875
1705465194720,427304,376254,3958
1705465194730,427413,376216,3942
1705465194746,427459,376210,3859
1705465194761,427468,376231,3941
1705465194777,427334,376173,3943
1705465194793,427388,376195,3889
1705465194808,427377,376042,3938
1705465194822,427277,376109,3964
1705465194838,427365,376015,3941
1705465194853,427205,375958,3941
1705465194869,427201,375959,3953
1705465194885,427158,375985,3941
1705465194900,427184,376004,3935
1705465194923,427227,375958,3944
1705465194939,427216,376018,3941
1705465194954,427192,375924,3880
1705465194970,427100,375900,3927
1705465194986,427087,376005,3933
1705465195001,427156,375916,3862
1705465195000,427136,375953,3940
1705465195016,427143,375955,3893
1705465195031,427198,375946,3943
1705465195047,427145,375901,3941
1705465195063,427096,375900,4006
1705465195078,427203,375832,3973
1705465195108,427083,375904,3938
1705465195124,427072,375877,3971
1705465195139,427083,375869,3940
1705465195155,427115,375866,3936
1705465195171,427103,375956,3938
1705465195186,427182,375945,3936
1705465195198,427201,375958,3942
1705465195214,427080,375999,3948
1705465195229,427163,375982,3859
1705465195245,427226,375985,3936
1705465195261,427218,375943,3942
1705465195276,427185,376010,3890
1705465195289,427180,375971,3936
1705465195305,427160,375964,3952
1705465195320,427239,376026,3982
1705465195336,427181,375948,3920
1705465195352,427230,376008,4006
1705465195367,427188,375992,3941
1705465195395,427311,376037,3947
1705465195411,427259,376049,3926
1705465195426,427221,376078,3941
1705465195442,427257,376049,3894
1705465195458,427205,376068,3941
1705465195473,427354,376127,3918
1705465195481,427352,376059,3938
1705465195497,427388,376072,3936
1705465195512,427342,376142,3894
1705465195528,427405,376059,3940
1705465195544,427394,376095,3891
1705465195559,427305,376109,4010
1705465195569,427323,376084,3940
1705465195585,427290,375987,3941
1705465195600,427330,376038,3969
1705465195616,427224,375957,3938
1705465195632,427203,376063,3966
1705465195647,427092,375965,3937
1705465195673,427162,375991,3938
1705465195689,427139,375899,3896
1705465195704,427003,375956,3940
1705465195720,427120,375859,3843
1705465195736,427090,375891,3919
1705465195751,427124,375825,3922
1705465195768,427108,375812,3942
1705465195784,427084,375774,3938
1705465195799,427044,375757,3957
1705465195815,427106,375836,3953
1705465195831,427106,375750,3938
1705465195846,427012,375823,4026
1705465195870,427046,375787,3958
1705465195886,427031,375766,3971
1705465195901,427078,375801,3950
1705465195917,427028,375786,3939
1705465195933,427083,375777,3912
1705465195948,427048,375785,3941
1705465195943,427093,375799,3942
1705465195959,427050,375791,3856
1705465195974,427094,375818,3939
1705465195990,427061,375760,3929
1705465196006,427074,375819,3889
1705465196021,427117,375747,3939
1705465196048,427144,375828,4009
1705465196064,427174,375781,3940
1705465196079,427132,375747,3949
1705465196095,427084,375852,3963
1705465196111,427045,375858,3938
1705465196126,427152,375833,3916
1705465196141,427003,375859,3956
1705465196157,427162,375873,3946
1705465196172,427057,375869,3876
1705465196188,427082,375901,3940
1705465196204,427143,375926,3968
1705465196219,427223,375935,3857
1705465196229,427052,375935,3938
1705465196245,427171,375915,3909
1705465196260,427325,375905,3944
1705465196276,427179,375889,3923
1705465196292,427246,375989,4008
1705465196307,427277,375891,3942
1705465196323,427205,375996,3946
1705465196339,427185,375968,3964
1705465196354,427273,375966,3952
1705465196370,427247,375991,3944
1705465196386,427136,376011,3940
1705465196401,427173,375975,3939
1705465196425,427240,375964,3938
1705465196441,427100,375950,3940
1705465196456,427125,375823,3878
1705465196472,427110,375816,3939
1705465196488,427061,375793,3917
1705465196503,427043,375768,3892
1705465196513,427039,375729,3961
1705465196529,427006,375669,3999
1705465196544,427011,375730,3966
1705465196560,426952,375627,3939
1705465196576,426926,375628,4017
1705465196591,426865,375646,3939
1705465196608,427001,375651,3938
1705465196624,426954,375641,3959
1705465196639,426917,375696,3937
1705465196655,426979,375653,3860
1705465196671,426910,375653,3952
1705465196686,426925,375644,3939
1705465196697,426963,375641,3938
1705465196713,426971,375648,3941
1705465196728,426985,375593,3923
1705465196744,426986,375545,3902
1705465196760,426928,375544,3933
1705465196775,426945,375576,3985
1705465196800,426974,375619,3942
1705465196816,426940,375513,3939
1705465196831,426946,375607,4015
1705465196847,426987,375607,3941
1705465196863,426949,375672,3929
1705465196878,426908,375643,3962
1705465196876,426991,375641,3949
1705465196892,427010,375606,3877
1705465196907,426918,375677,3939
1705465196923,426983,375731,3934
1705465196939,427012,375611,3862
1705465196954,427051,375665,3934
1705465196983,427020,375666,3924
1705465196999,427147,375655,3941
1705465197014,427048,375621,3963
1705465197030,427039,375723,3939
1705465197046,427111,375602,3937
1705465197061,427060,375654,3986
1705465197086,427113,375664,3940
1705465197102,427060,375653,3935
1705465197117,427082,375734,3959
1705465197133,427152,375760,3932
1705465197149,427093,375737,3943
1705465197164,427202,375752,3879
1705465197161,427145,375788,3943
1705465197177,427115,375797,3857
1705465197192,427173,375770,3937
1705465197208,427097,375738,3941
1705465197224,427033,375652,3888
1705465197239,427089,375610,3938
1705465197266,426990,375581,3938
1705465197282,427021,375602,3979
1705465197297,426924,375464,3937
1705465197313,426903,375524,3978
1705465197329,426840,375484,3940
1705465197344,426902,375464,3946
1705465197357,426849,375452,3939
1705465197373,426835,375511,3920
1705465197388,426879,375421,3879
1705465197404,426708,375439,3936
1705465197420,426820,375454,3905
1705465197435,426856,375448,3856
1705465197448,426832,375439,3946
1705465197464,426862,375428,3912
1705465197479,426864,375431,3928
1705465197495,426855,375347,3959
1705465197511,426868,375439,4005
1705465197526,426925,375363,3937
1705465197548,426809,375382,3941
1705465197564,426764,375369,3983
1705465197579,426795,375332,3936
1705465197595,426785,375415,3980
1705465197611,426753,375395,3939
1705465197626,426756,375442,3944
1705465197641,426787,375429,3935
1705465197657,426869,375464,3938
1705465197672,426809,375432,3866
1705465197688,426874,375420,3932
1705465197704,426933,375403,3937
1705465197719,426904,375481,3889
1705465197730,426892,375495,3923
1705465197746,426877,375363,3938
1705465197761,426888,375488,3983
1705465197777,426884,375434,3960
1705465197793,426967,375484,4024
1705465197808,426885,375508,3940
1705465197822,426919,375495,3938
1705465197838,426921,375556,3977
1705465197853,426864,375589,3935
1705465197869,426956,375503,3844
1705465197885,426938,375489,3940
1705465197900,426869,375580,3918
1705465197923,426905,375467,3944
1705465197939,426993,375524,3939
1705465197954,426968,375560,3921
1705465197970,427024,375572,3943
1705465197986,427042,375461,3939
1705465198001,427027,375552,4022
1705465198017,427025,375503,3959
1705465198033,426936,375450,3928
1705465198048,426930,375502,4017
1705465198064,426926,375442,3938
1705465198080,426924,375480,3929
1705465198095,426753,375444,3950
1705465198105,426872,375439,3937
1705465198121,426856,375400,3875
1705465198136,426756,375390,3939
1705465198152,426835,375399,3947
1705465198168,426798,375336,3861
1705465198183,426806,375333,3936
1705465198197,426750,375309,3883
1705465198213,426765,375300,3943
1705465198228,426794,375257,3921
1705465198244,426762,375360,3931
1705465198260,426833,375305,3941
1705465198275,426751,375316,3993
1705465198298,426714,375227,3938
1705465198314,426772,375330,3936
1705465198329,426735,375346,3942
1705465198345,426709,375316,3938
1705465198361,426780,375373,3971
1705465198376,426750,375363,3878
1705465198388,426806,375297,3925
1705465198404,426756,375385,3894
1705465198419,426832,375370,3947
1705465198435,426820,375377,3916
1705465198451,426820,375376,3898
1705465198466,426843,375374,3938
1705465198482,426786,375335,3974
1705465198498,426795,375382,3965
1705465198513,426871,375304,3940
1705465198529,426853,375382,3986
1705465198545,426783,375417,3940
1705465198560,426878,375362,3937
1705465198572,426847,375425,3939
1705465198588,426783,375504,3965
1705465198603,426932,375490,3860
1705465198619,426796,375506,3918
1705465198635,426876,375539,3966
1705465198650,426913,375497,3902
1705465198659,426907,375530,3921
1705465198675,426930,375526,3921
1705465198690,426973,375495,3889
1705465198706,427003,375483,3935
1705465198722,426928,375552,3974
1705465198737,427031,375596,3940
1705465198766,427028,375594,3937
1705465198782,427064,375619,4016
1705465198797,426985,375560,3941
1705465198813,426950,375564,3935
1705465198829,426889,375527,3961
1705465198844,426919,375598,3961
1705465198857,426868,375488,3950
1705465198873,426805,375537,3937
1705465198888,426870,375473,3911
1705465198904,426814,375461,3941
1705465198920,426845,375427,3931
1705465198935,426770,375421,3890
1705465198947,426846,375358,3937
1705465198963,426862,375322,3963
1705465198978,426786,375371,4006
1705465198994,426745,375290,3937
1705465199010,426768,375304,3956
1705465199025,426757,375324,3970
1705465199035,426815,375353,3936
1705465199051,426809,375340,3958
1705465199066,426666,375379,3933
1705465199082,426705,375402,3931
1705465199098,426719,375366,3882
1705465199113,426655,375380,3938
1705465199142,426753,375371,3867
1705465199158,426863,375352,3938
1705465199173,426742,375348,3921
1705465199189,426766,375366,3980
1705465199205,426862,375296,3939
1705465199220,426801,375327,3949
1705465199245,426877,375454,3937
1705465199261,426826,375376,3941
1705465199276,426798,375457,4015
1705465199292,426820,375425,3937
1705465199308,426865,375402,3947
1705465199323,426849,375454,3922
1705465199324,426890,375525,3963
1705465199340,426888,375513,3898
1705465199355,426768,375497,3940
1705465199371,426866,375473,3972
1705465199387,426908,375469,3857
1705465199402,426952,375536,3936
1705465199424,426938,375534,3926
1705465199440,426964,375537,3929
1705465199455,426953,375464,3964
1705465199471,427026,375563,3946
1705465199487,427067,375505,3938
1705465199502,426948,375487,3939
1705465199516,426944,375626,3940
1705465199532,426926,375639,3963
1705465199547,426992,375615,3967
1705465199563,426964,375658,3949
1705465199579,427024,375696,3932
1705465199594,427092,375631,3880
1705465199603,427010,375631,3964
1705465199619,426999,375613,3866
1705465199634,426940,375569,3942
1705465199650,426911,375516,3876
1705465199666,426880,375557,3890
1705465199681,427001,375531,3939
1705465199708,426874,375493,3976
1705465199724,426836,375435,3964
1705465199739,426910,375407,3938
1705465199755,426836,375436,3991
1705465199771,426758,375423,3938
1705465199786,426729,375387,3939
1705465199799,426730,375381,3920
1705465199815,426762,375456,3939
1705465199830,426821,375428,3874
1705465199846,426781,375390,3937
1705465199862,426781,375472,3912
1705465199877,426713,375368,3857
1705465199888,426756,375413,3936
1705465199904,426794,375387,3939
1705465199919,426786,375401,3890
1705465199935,426809,375304,3936
1705465199951,426762,375355,4021
1705465199966,426861,375373,3937
1705465199982,426793,375369,3935
1705465199998,426769,375379,4000
1705465200013,426787,375381,3936
1705465200029,426853,375374,3949
1705465200045,426772,375401,3968
1705465200060,426790,375425,3945
1705465200072,426795,375387,3949
1705465200088,426751,375398,3938
1705465200103,426822,375500,3963
1705465200119,426816,375404,3962
1705465200135,426871,375425,3939
1705465200150,426810,375446,3906
1705465200173,426911,375491,3941
1705465200189,426888,375424,3939
1705465200204,426866,375452,4008
1705465200220,426951,375462,3962
1705465200236,426942,375513,3964
1705465200251,426880,375484,3967
1705465200263,426870,375481,3985
1705465200279,427010,375545,3961
1705465200294,426890,375546,3938
1705465200310,426975,375538,3940
1705465200326,426955,375563,3941
1705465200341,426880,375650,3940
1705465200357,426992,375611,3898
1705465200373,427025,375631,3949
1705465200388,427033,375609,3920
1705465200404,426962,375552,3917
1705465200420,427028,375589,3938
1705465200435,426907,375466,3999
1705465200447,426946,375496,3939
1705465200463,426886,375435,3940
1705465200478,426851,375455,4015
1705465200494,426863,375481,3918
1705465200510,426854,375412,3988
1705465200525,426829,375466,3960
1705465200533,426787,375406,3952
1705465200549,426819,375449,3904
1705465200564,426659,375413,3952
1705465200580,426802,375360,3924
1705465200596,426765,375391,3916
1705465200611,426806,375386,3940
1705465200639,426759,375367,3934
1705465200655,426754,375391,3891
1705465200670,426738,375313,3935
1705465200686,426734,375375,3985
1705465200702,426813,375371,3939
1705465200717,426812,375292,3940
1705465200733,426788,375375,3937
1705465200749,426777,375320,3937
1705465200764,426797,375407,3935
1705465200780,426730,375364,3939
1705465200796,426794,375402,3971
1705465200811,426710,375389,3886
1705465200818,426800,375371,3939
1705465200834,426808,375426,3908
1705465200849,426844,375444,3862
1705465200865,426760,375393,3899
1705465200881,426810,375363,3902
1705465200896,426943,375414,3937
1705465200909,426830,375480,3912
1705465200925,426869,375447,4007
1705465200940,426878,375323,3950
1705465200956,426869,375416,3986
1705465200972,426821,375473,3969
1705465200987,426916,375487,3960
1705465201016,426909,375471,3982
1705465201032,426853,375530,3939
1705465201047,426935,375562,3940
1705465201063,426857,375489,3922
1705465201079,426769,375517,3948
1705465201094,426892,375501,3861
1705465201119,426854,375504,3938
1705465201135,426973,375525,3919
1705465201150,426962,375549,3903
1705465201166,426995,375478,3940
1705465201182,427002,375578,3917
1705465201197,426992,375599,3982
1705465201196,426953,375561,3941
1705465201212,426935,375524,4016
1705465201227,426920,375509,3938
1705465201243,426933,375469,3939
1705465201259,426859,375421,3929
1705465201274,426796,375480,3939
1705465201300,426804,375435,3911
1705465201316,426709,375373,3939
1705465201331,426817,375383,3895
1705465201347,426713,375322,3949
1705465201363,426820,375302,3940
1705465201378,426752,375302,3907
1705465201397,426783,375308,3925
1705465201413,426750,375159,3963
1705465201428,426711,375235,4006
1705465201444,426757,375215,3974
1705465201460,426741,375174,3937
1705465201475,426717,375240,3985
1705465201478,426698,375301,3921
1705465201494,426746,375233,3962
1705465201509,426626,375219,3939
1705465201525,426633,375159,3946
1705465201541,426674,375168,3877
1705465201556,426529,375224,3936
1705465201572,426688,375129,3933
1705465201588,426684,375145,3918
1705465201603,426704,375156,3921
1705465201619,426720,375191,3922
1705465201635,426726,375182,3936
1705465201650,426702,375126,3937
1705465201673,426735,375178,3956
1705465201689,426725,375144,3925
1705465201704,426707,375245,4026
1705465201720,426716,375248,3935
1705465201736,426760,375249,3939
1705465201751,426757,375285,3944
1705465201763,426765,375298,3938
1705465201779,426826,375308,3874
1705465201794,426742,375332,3910
1705465201810,426738,375347,3939
1705465201826,426816,375360,3855
1705465201841,426888,375322,3937
1705465201857,426813,375377,3964
1705465201873,426906,375393,3885
1705465201888,426881,375325,3939
1705465201904,426897,375402,3985
1705465201920,426965,375403,3951
1705465201935,426894,375352,3939
1705465201947,426964,375446,3942
1705465201963,426847,375507,3939
1705465201978,426927,375498,3934
1705465201994,426865,375502,3916
1705465202010,426892,375515,3946
1705465202025,426842,375434,3876
1705465202035,426830,375380,3940
1705465202051,426807,375428,3973
1705465202066,426806,375349,3856
1705465202082,426745,375311,3940
1705465202098,426798,375333,3908
1705465202113,426872,375264,3943
1705465202141,426733,375338,3911
1705465202157,426747,375254,4004
1705465202172,426813,375229,3937
1705465202188,426738,375242,3988
1705465202204,426648,375248,3958
1705465202219,426711,375214,3939
1705465202232,426753,375239,3916
1705465202248,426655,375231,3939
1705465202263,426738,375327,3970
1705465202279,426727,375238,3950
1705465202295,426707,375282,3939
1705465202310,426755,375314,3876
1705465202324,426826,375328,3914
1705465202340,426698,375266,3917
1705465202355,426747,375267,3890
1705465202371,426765,375253,3939
1705465202387,426753,375227,3957
1705465202402,426867,375338,3969
1705465202410,426797,375332,3955
1705465202426,426852,375383,4000
1705465202441,426823,375376,3939
1705465202457,426863,375378,3941
1705465202473,426868,375435,3934
1705465202488,426805,375506,3940
1705465202515,426875,375434,3864
1705465202531,426915,375496,3953
1705465202546,426903,375514,3936
1705465202562,426900,375585,3921
1705465202578,426992,375572,3941
1705465202593,426948,375552,3926
1705465202612,427044,375576,3942
1705465202628,427020,375468,3940
1705465202643,427010,375613,4009
1705465202659,427033,375574,3941
1705465202675,427018,375515,3941
1705465202690,427057,375542,4020
1705465202694,427071,375594,3941
1705465202710,426997,375642,3935
1705465202725,427022,375686,3963
1705465202741,427069,375689,3942
1705465202757,427125,375707,3932
1705465202772,427026,375699,3943
1705465202788,427133,375651,3940
1705465202804,427008,375620,3864
1705465202819,426968,375533,3937
1705465202835,426980,375529,3918
1705465202851,426976,375459,3942
1705465202866,426870,375392,3964
1705465202891,426899,375395,3941
1705465202907,426911,375349,3939
1705465202922,426854,375366,3985
1705465202938,426742,375325,3915
1705465202954,426802,375288,3942
1705465202969,426778,375278,3961
1705465202980,426757,375241,3916
1705465202996,426729,375258,3937
1705465203011,426752,375273,3878
1705465203027,426709,375294,3946
1705465203043,426753,375250,3934
1705465203058,426792,375242,3938
1705465203074,426693,375227,3937
1705465203090,426687,375227,3889
1705465203105,426756,375110,3938
1705465203121,426664,375219,3965
1705465203137,426755,375232,3980
1705465203152,426748,375119,3937
1705465203163,426642,375218,3938
1705465203179,426710,375202,3938
1705465203194,426695,375164,3947
1705465203210,426703,375242,3930
1705465203226,426654,375270,3938
1705465203241,426733,375220,3867
1705465203263,426671,375186,3951
1705465203279,426745,375285,3899
1705465203294,426685,375235,3901
1705465203310,426784,375232,3954
1705465203326,426787,375328,3918
1705465203341,426857,375293,3917
1705465203354,426739,375297,3942
1705465203370,426792,375356,3996
1705465203385,426880,375310,3937
1705465203401,426839,375325,3939
1705465203417,426798,375306,3983
1705465203432,426866,375305,3938
1705465203447,426838,375394,3966
1705465203463,426808,375387,3941
1705465203478,426892,375469,3937
1705465203494,426878,375422,3925
1705465203510,426784,375479,3938
1705465203525,426884,375438,3868
1705465203550,426915,375445,3951
1705465203566,427015,375503,3923
1705465203581,427006,375554,3893
1705465203597,427038,375482,3938
1705465203613,426928,375434,3922
1705465203628,426961,375449,3966
1705465203639,426912,375431,3919
1705465203655,426875,375418,4026
1705465203670,426947,375451,3943
1705465203686,426858,375462,3940
1705465203702,426880,375404,3962
1705465203717,426779,375487,3940
1705465203733,426784,375356,3894
1705465203749,426753,375378,3937
1705465203764,426748,375380,3913
1705465203780,426798,375267,3868
1705465203796,426783,375313,3937
1705465203811,426735,375291,3916
1705465203822,426776,375270,3938
1705465203838,426833,375227,3936
1705465203853,426814,375347,4009
1705465203869,426857,375246,3934
1705465203885,426774,375255,3940
1705465203900,426772,375293,3968
1705465203908,426783,375363,3924
1705465203924,426793,375318,3935
1705465203939,426790,375273,3962
1705465203955,426763,375333,3938
1705465203971,426805,375274,3879
1705465203986,426710,375327,3940
1705465204016,426839,375305,3948
1705465204032,426827,375297,3859
1705465204047,426884,375326,3923
1705465204063,426855,375341,3907
1705465204079,426893,375383,3940
1705465204094,426814,375246,3921
1705465204109,426834,375379,3940
1705465204125,426957,375354,3939
1705465204140,426863,375318,3975
1705465204156,426861,375373,3943
1705465204172,426937,375380,3937
1705465204187,426950,375402,3946
1705465204194,426953,375415,3907
1705465204210,426917,375527,3974
1705465204225,426889,375379,3878
1705465204241,426922,375519,3955
1705465204257,426968,375483,3882
1705465204272,427065,375483,3949
1705465204288,426987,375518,3967
1705465204304,426969,375459,3889
1705465204319,427079,375471,3939
1705465204335,426971,375528,3977
1705465204351,427052,375568,3946
1705465204366,427060,375528,3940
1705465204390,427054,375529,3929
1705465204406,426942,375535,3940
1705465204421,426967,375442,3940
1705465204437,426971,375506,3941
1705465204453,426857,375525,3941
1705465204468,426932,375449,3884
1705465204482,426805,375453,3939
1705465204498,426896,375482,3966
1705465204513,426839,375374,3857
1705465204529,426808,375343,3926
1705465204545,426764,375317,3940
1705465204560,426867,375306,3890
1705465204568,426754,375369,3907
1705465204584,426820,375304,4008
1705465204599,426885,375301,3938
1705465204615,426788,375329,3939
1705465204631,426789,375284,4001
1705465204646,426787,375233,3937
1705465204664,426705,375263,3941
1705465204680,426732,375283,3959
1705465204695,426757,375325,3972
1705465204711,426785,375306,3942
1705465204727,426746,375339,3939
1705465204742,426819,375315,3902
1705465204767,426907,375323,3961
1705465204783,426901,375328,3935
1705465204798,426882,375295,3898
1705465204814,426887,375366,3949
1705465204830,426883,375271,3938
1705465204845,426873,375398,4007
1705465204855,426892,375325,3944
1705465204871,426881,375423,3987
1705465204886,426883,375384,3971
1705465204902,426897,375355,3939
1705465204918,426926,375461,3935
1705465204933,426823,375444,3941
1705465204959,426886,375411,3935
1705465204975,426913,375432,3883
1705465204990,426915,375521,3949
1705465205006,426995,375440,3861
1705465205022,427020,375482,3938
1705465205037,426999,375456,3923
1705465205037,426960,375495,3938
1705465205053,427137,375428,3941
1705465205068,426963,375449,3951
1705465205084,427100,375551,3936
1705465205100,427028,375461,3950
1705465205115,427041,375538,4018
1705465205138,427060,375596,3951
1705465205154,427122,375602,3948
1705465205169,427150,375660,3912
1705465205185,427119,375706,3939
1705465205201,427103,375594,3879
1705465205216,426987,375577,3940
1705465205246,427072,375561,3940
1705465205262,427033,375528,3862
1705465205277,426986,375465,3939
1705465205293,427028,375497,3914
1705465205309,427054,375449,3927
1705465205324,427004,375365,3962
1705465205323,426931,375372,3935
1705465205339,427010,375418,3940
1705465205354,426938,375355,3960
1705465205370,426898,375466,3939
1705465205386,426897,375360,3940
1705465205401,426939,375371,3965
1705465205425,426891,375456,3955
1705465205441,426859,375426,3945
1705465205456,426883,375450,3876
1705465205472,426898,375466,3944
1705465205488,426844,375435,3950
1705465205503,426930,375440,3944
1705465205515,426862,375423,3947
1705465205531,426864,375395,3890
1705465205546,426985,375425,3938
1705465205562,426975,375391,3955
1705465205578,426958,375444,3984
1705465205593,426956,375360,3939
1705465205608,426970,375433,3946
1705465205624,426925,375430,3940
1705465205639,427001,375435,3939
1705465205655,426918,375412,3965
1705465205671,426913,375529,3940
1705465205686,426965,375495,3910
1705465205698,426957,375471,3941
1705465205714,426942,375526,3916
1705465205729,427045,375474,3861
1705465205745,427064,375609,3940
1705465205761,427021,375541,3921
1705465205776,427053,375590,3926
1705465205784,427144,375549,3935
1705465205800,427100,375597,4021
1705465205815,427190,375610,3932
1705465205831,427158,375655,3940
1705465205847,427128,375697,4018
1705465205862,427181,375685,3942
1705465205891,427142,375683,3906
1705465205907,427156,375670,3964
1705465205922,427187,375798,3940
1705465205938,427221,375771,3902
1705465205954,427169,375752,3945
1705465205969,427292,375877,3969
1705465205983,427236,375881,3950
1705465205999,427334,375829,3953
1705465206014,427369,375830,3927
1705465206030,427386,375765,3940
1705465206046,427280,375656,3927
1705465206061,427207,375724,3983
1705465206070,427193,375686,3942
1705465206086,427190,375704,3978
1705465206101,427121,375696,3965
1705465206117,427183,375660,3940
1705465206133,427151,375638,3963
1705465206148,427036,375683,3941
1705465206162,427090,375583,3950
1705465206178,427107,375603,3879
1705465206193,427014,375620,3940
1705465206209,427092,375557,3880
1705465206225,427161,375609,3950
1705465206240,427160,375592,3921
1705465206265,427108,375669,3957
1705465206281,427230,375620,3939
1705465206296,427083,375538,4001
1705465206312,427128,375623,3941
1705465206328,427147,375571,3941
1705465206343,427146,375608,3971
1705465206357,427131,375629,3982
1705465206373,427143,375638,3942
1705465206388,427132,375594,3962
1705465206404,427148,375674,3954
1705465206420,427174,375740,3866
1705465206435,427161,375673,3957
1705465206445,427164,375692,3943
1705465206461,427236,375697,3859
1705465206476,427261,375675,3941
1705465206492,427169,375721,3921
1705465206508,427276,375687,3891
1705465206523,427305,375670,3940
1705465206538,427250,375739,3962
1705465206554,427343,375740,3945
1705465206569,427244,375773,3954
1705465206585,427234,375742,3941
1705465206601,427228,375698,3944
1705465206616,427314,375870,3942
1705465206649,427252,375761,3940
1705465206665,427316,375869,3975
1705465206680,427321,375804,3880
1705465206696,427315,375905,3964
1705465206712,427305,375865,3917
1705465206727,427400,375923,3865
1705465206729,427478,375899,3905
1705465206745,427420,375934,3905
1705465206760,427541,375984,3942
1705465206776,427466,375995,3940
1705465206792,427473,375983,4010
1705465206807,427546,375883,3940
1705465206823,427422,375960,3961
1705465206839,427379,375938,3974
1705465206854,427358,375847,3942
1705465206870,427379,375873,3966
1705465206886,427314,375878,3944
1705465206901,427331,375878,3949
1705465206913,427416,375874,3943
1705465206929,427225,375894,3951
1705465206944,427283,375828,3859
1705465206960,427304,375792,3940
1705465206976,427298,375778,3926
1705465206991,427281,375719,3894
1705465206999,427328,375702,3942
1705465207015,427321,375843,3927
1705465207030,427339,375796,3985
1705465207046,427342,375693,3942
1705465207062,427233,375755,4003
1705465207077,427136,375672,3943
1705465207110,427170,375620,3951
1705465207126,427154,375689,3921
1705465207141,427138,375682,3956
1705465207157,427180,375688,3897
1705465207173,427077,375665,3940
1705465207188,427153,375701,3918
1705465207198,427167,375630,3951
1705465207214,427254,375680,3942
1705465207229,427196,375690,3896
1705465207245,427232,375724,3940
1705465207261,427221,375607,3942
1705465207276,427206,375706,4007
1705465207285,427226,375685,3902
1705465207301,427290,375672,3942
1705465207316,427258,375700,3985
1705465207332,427209,375688,3973
1705465207348,427280,375705,3946
1705465207363,427190,375763,3941
1705465207393,427237,375724,3943
1705465207409,427236,375756,3924
1705465207424,427149,375824,3944
1705465207440,427275,375757,3842
1705465207456,427290,375779,3922
1705465207471,427302,375749,3923
1705465207483,427313,375802,3952
1705465207499,427384,375812,3941
1705465207514,427289,375696,3945
1705465207530,427344,375823,3942
1705465207546,427448,375743,3943
1705465207561,427346,375867,4028
1705465207573,427403,375865,3946
1705465207589,427473,375832,3967
1705465207604,427336,375834,3964
1705465207620,427316,375905,3943
1705465207636,427329,375770,3875
1705465207651,427164,375745,3940
1705465207659,427238,375742,3944
1705465207675,427285,375690,3861
1705465207690,427300,375676,3941
1705465207706,427196,375707,3942
1705465207722,427109,375653,3889
1705465207737,427197,375556,3941
1705465207780,427131,375644,3965
1705465207796,427222,375595,3941
1705465207811,427135,375527,3950
1705465207827,427084,375580,3968
1705465207843,427074,375590,3940
1705465207858,427082,375598,3951
1705465207858,427103,375641,3959
1705465207874,427120,375637,3939
1705465207889,427071,375527,3866
1705465207905,427042,375562,3940
1705465207921,427087,375606,3967
1705465207936,427102,375560,3878
1705465207944,427113,375470,3943
1705465207960,427128,375594,3909
1705465207975,427182,375522,3944
1705465207991,427129,375560,3900
1705465208007,427105,375562,3985
1705465208022,427182,375580,3939
1705465208039,427134,375565,3944
1705465208055,427109,375572,3966
1705465208070,427106,375582,3964
1705465208086,427157,375655,3964
1705465208102,427115,375596,3940
1705465208117,427131,375673,3939
1705465208140,427203,375660,3937
1705465208156,427118,375696,3940
1705465208171,427175,375657,3845
1705465208187,427221,375666,3940
1705465208203,427206,375697,3920
1705465208218,427183,375631,3935
1705465208229,427227,375638,3878
1705465208245,427157,375592,3978
1705465208260,427306,375687,3967
1705465208276,427254,375701,3944
1705465208292,427193,375732,4021
1705465208307,427229,375706,3940
1705465208323,427239,375702,3958
1705465208339,427225,375718,3963
1705465208354,427159,375768,3940
1705465208370,427267,375695,3862
1705465208386,427218,375711,3982
1705465208401,427200,375742,3967
1705465208414,427205,375630,3940
1705465208430,427174,375578,3941
1705465208445,427066,375611,3923
1705465208461,427108,375537,3939
1705465208477,427044,375407,3934
1705465208492,427040,375493,3980
1705465208516,427023,375424,3942
1705465208532,426962,375301,3936
1705465208547,426929,375409,4012
1705465208563,426935,375372,3937
1705465208579,426893,375390,3931
1705465208594,426820,375279,3960
1705465208605,426876,375255,3936
1705465208621,426871,375289,3876
1705465208636,426739,375322,3938
1705465208652,426756,375222,3935
1705465208668,426776,375208,3862
1705465208683,426770,375149,3928
1705465208700,426805,375165,3907
1705465208716,426782,375155,3937
1705465208731,426625,375017,3959
1705465208747,426691,375066,3933
1705465208763,426735,374969,3934
1705465208778,426640,375030,3963
1705465208799,426558,375076,3937
1705465208815,426698,375058,3934
1705465208830,426710,375028,3954
1705465208846,426742,375117,3933
1705465208862,426730,375123,3935
1705465208877,426693,375134,3876
1705465208875,426748,375135,3943
1705465208891,426782,375090,3855
1705465208906,426830,375118,3936
1705465208922,426748,375134,3918
1705465208938,426741,375099,3887
1705465208953,426800,375105,3935
1705465208984,426628,375033,3943
1705465209000,426681,374986,3934
1705465209015,426691,374937,3933
1705465209031,426694,375037,3983
1705465209047,426588,374984,3934
1705465209062,426670,375000,3937
1705465209072,426809,375009,3933
1705465209088,426720,375101,3937
1705465209103,426847,375177,3878
1705465209119,426936,375110,3935
1705465209135,426993,375279,3907
1705465209150,426956,375253,3856
1705465209159,427036,375252,3916
1705465209175,426991,375219,3915
1705465209190,427045,375188,3925
1705465209206,426929,375091,3959
1705465209222,426899,375067,4001
1705465209237,426874,374954,3934
1705465209279,426713,374895,3937
1705465209295,426690,374823,3978
1705465209310,426738,374845,3934
1705465209326,426642,374769,3958
1705465209342,426602,374759,3935
1705465209357,426627,374785,3938
1705465209359,426550,374665,3918
1705465209375,426443,374706,3930
1705465209390,426558,374584,3861
1705465209406,426513,374654,3932
1705465209422,426568,374650,3916
1705465209437,426478,374586,3884
1705465209445,426518,374632,3937
1705465209461,426458,374508,3949
1705465209476,426478,374590,3976
1705465209492,426524,374540,3942
1705465209508,426449,374632,4021
1705465209523,426367,374624,3933
1705465209537,426472,374587,3954
1705465209553,426409,374576,3943
1705465209568,426374,374613,3931
1705465209584,426428,374554,3809
1705465209600,426388,374542,3932
1705465209615,426433,374566,3906
1705465209655,426399,374513,3911
1705465209671,426396,374526,3931
1705465209686,426363,374500,3911
1705465209702,426365,374490,3911
1705465209718,426375,374393,3930
1705465209733,426358,374519,4014
1705465209732,426310,374494,3945
1705465209748,426339,374434,3941
1705465209763,426344,374472,4006
1705465209779,426378,374477,3930
1705465209795,426384,374454,3908
1705465209810,426335,374533,3940
1705465209820,426507,374609,3917
1705465209836,426509,374628,3870
1705465209851,426480,374610,3930
1705465209867,426663,374693,3940
1705465209883,426659,374751,3867
1705465209898,426808,374765,3936
1705465209913,426842,374840,3934
1705465209929,426890,374907,3939
1705465209944,426816,374832,3916
1705465209960,426840,374861,3958
1705465209976,426819,374793,3904
1705465209991,426727,374789,3990
1705465210014,426580,374698,3932
1705465210030,426662,374592,3932
1705465210045,426538,374602,3952
1705465210061,426354,374550,3924
1705465210077,426407,374530,3988
1705465210092,426399,374468,3859
1705465210105,426389,374445,3938
1705465210121,426336,374373,3916
1705465210136,426351,374306,3940
1705465210152,426269,374251,3928
1705465210168,426327,374262,3882
1705465210183,426341,374244,3929
1705465210212,426267,374219,3942
1705465210228,426290,374250,3957
1705465210243,426314,374184,3929
1705465210259,426304,374210,3978
1705465210275,426205,374209,3929
1705465210290,426241,374195,3930
1705465210288,426188,374265,3927
1705465210304,426143,374180,3933
1705465210319,426284,374175,3851
1705465210335,426182,374191,3952
1705465210351,426282,374254,3957
1705465210366,426233,374204,3851
1705465210374,426324,374218,3957
1705465210390,426233,374221,3910
1705465210405,426280,374222,3884
1705465210421,426257,374159,3921
1705465210437,426151,374098,3996
1705465210452,426254,374133,3928
1705465210482,426238,374148,3931
1705465210498,426355,374171,4004
1705465210513,426311,374163,3930
1705465210529,426429,374299,3929
1705465210545,426505,374283,3930
1705465210560,426590,374484,3933
1705465210574,426626,374490,3935
1705465210590,426612,374580,3933
1705465210605,426707,374550,3928
1705465210621,426715,374574,3935
1705465210637,426780,374597,3927
1705465210652,426674,374512,3912
1705465210673,426687,374471,3933
1705465210689,426679,374445,3954
1705465210704,426628,374551,4000
1705465210720,426665,374547,3933
1705465210736,426705,374675,3980
1705465210751,426656,374625,3966
1705465210750,426685,374686,3920
1705465210766,426730,374685,3957
1705465210781,426606,374648,3934
1705465210797,426670,374665,3926
1705465210813,426629,374585,3875
1705465210828,426500,374657,3932
1705465210859,426573,374532,3938
1705465210875,426668,374523,3934
1705465210890,426564,374479,3917
1705465210906,426640,374453,3909
1705465210922,426606,374410,3933
1705465210937,426597,374371,3950
1705465210944,426519,374443,3952
1705465210960,426542,374384,3934
1705465210975,426567,374403,3985
1705465210991,426555,374431,3932
1705465211007,426585,374346,3949
1705465211022,426549,374467,3919
1705465211034,426567,374525,3936
1705465211050,426543,374460,3871
1705465211065,426482,374435,3932
1705465211081,426648,374444,3907
1705465211097,426670,374453,3851
1705465211112,426687,374404,3920
1705465211141,426559,374314,3892
1705465211157,426716,374266,3921
1705465211172,426578,374223,3956
1705465211188,426617,374230,3953
1705465211204,426623,374168,3931
1705465211219,426563,374050,3929
1705465211232,426595,374168,3928
1705465211248,426631,374228,3931
1705465211263,426745,374294,3959
1705465211279,426715,374338,3935
1705465211295,426806,374456,3938
1705465211310,426890,374440,3872
1705465211320,426912,374478,3934
1705465211336,426863,374478,3870
1705465211351,426886,374525,3913
1705465211367,426830,374533,3933
1705465211383,426869,374606,3903
1705465211398,426924,374659,3933
1705465211414,426852,374742,3935
1705465211430,426930,374676,3978
1705465211445,427063,374778,3936
1705465211461,426971,374778,4011
1705465211477,426902,374798,3936
1705465211492,427081,374855,3938
1705465211516,427094,374861,3960
1705465211532,426926,374943,3937
1705465211547,427038,374917,3866
1705465211563,427022,374875,3961
1705465211579,426993,374910,3914
1705465211594,427025,374869,3857
1705465211605,426996,374905,3959
1705465211621,427145,374929,3919
1705465211636,427144,374980,3885
1705465211652,427173,374890,3939
1705465211668,427157,374985,4021
1705465211683,427219,375049,3938
1705465211711,427149,375026,3877
1705465211727,427152,374983,3999
1705465211742,427078,374976,3941
1705465211758,427024,374996,3894
1705465211774,426953,374888,3962
1705465211789,426937,374962,3940
1705465211788,426924,374816,3910
1705465211804,426795,374783,3934
1705465211819,426848,374783,3961
1705465211835,426847,374703,3933
1705465211851,426857,374741,3935
1705465211866,426816,374715,3904
1705465211889,426893,374754,3954
1705465211905,426933,374708,3934
1705465211920,426929,374830,4003
1705465211936,426983,374863,3939
1705465211952,427090,374934,3973
1705465211967,427013,374979,3935
1705465211980,427148,375029,3941
1705465211996,427182,375022,3958
1705465212011,427154,374999,3938
1705465212027,427236,375060,3922
1705465212043,427222,375097,3918
1705465212058,427124,375135,3941
1705465212072,427163,375052,3928
1705465212088,427267,375112,3947
1705465212103,427229,375097,3918
1705465212119,427221,375135,3914
1705465212135,427279,375178,3937
1705465212150,427274,375091,3999
1705465212176,427298,375181,3964
1705465212192,427319,375216,3939
1705465212207,427316,375223,4016
1705465212223,427312,375259,3919
1705465212239,427456,375336,3964
1705465212254,427386,375328,3963
1705465212250,427421,375326,3940
1705465212266,427466,375324,3877
1705465212281,427410,375302,3953
1705465212297,427517,375330,3915
1705465212313,427528,375357,3863
1705465212328,427597,375389,3942
1705465212359,427564,375361,3968
1705465212375,427635,375446,3926
1705465212390,427657,375364,3939
1705465212406,427605,375485,3987
1705465212422,427653,375539,3947
1705465212437,427645,375525,3944
1705465212463,427663,375611,3943
1705465212479,427695,375643,3942
1705465212494,427710,375760,3947
1705465212510,427659,375796,3947
1705465212526,427822,375888,3982
1705465212541,427781,375859,3875
1705465212533,427787,375818,3944
1705465212549,427781,375847,3918
1705465212564,427716,375808,3868
1705465212580,427677,375746,3895
1705465212596,427676,375723,3906
1705465212611,427699,375760,3943
1705465212655,427591,375654,3912
1705465212671,427615,375755,3978
1705465212686,427701,375699,3944
1705465212702,427621,375714,4027
1705465212718,427516,375675,3943
1705465212733,427636,375624,3960
1705465212733,427616,375653,3950
1705465212749,427441,375583,3943
1705465212764,427471,375538,3903
1705465212780,427453,375508,3943
1705465212796,427351,375491,3928
1705465212811,427392,375447,3856
1705465212818,427336,375448,3961
1705465212834,427412,375455,3922
1705465212849,427409,375480,3909
1705465212865,427419,375463,3946
1705465212881,427439,375485,3950
1705465212896,427427,375516,3983
1705465212909,427503,375584,3961
1705465212925,427516,375595,3992
1705465212940,427562,375668,3942
1705465212956,427651,375707,3965
1705465212972,427675,375794,3931
1705465212987,427613,375821,3944
1705465213015,427746,375789,3960
1705465213031,427603,375811,3943
1705465213046,427743,375905,3920
1705465213062,427691,375855,3896
1705465213078,427808,375858,3946
1705465213093,427768,375906,3898
1705465213108,427727,375862,3944
1705465213124,427729,375761,3968
1705465213139,427678,375781,4013
1705465213155,427670,375772,3934
1705465213171,427596,375701,3942
1705465213186,427589,375727,3986
1705465213195,427520,375598,3941
1705465213211,427550,375628,3967
1705465213226,427427,375561,3944
1705465213242,427597,375628,3940
1705465213258,427500,375586,3882
1705465213273,427459,375646,3924
1705465213287,427476,375608,3884
1705465213303,427521,375601,3923
1705465213318,427497,375569,3941
1705465213334,427528,375601,3915
1705465213350,427607,375583,3940
1705465213365,427529,375522,3940
1705465213404,427519,375591,3944
1705465213420,427502,375527,3944
1705465213435,427482,375573,4009
1705465213451,427448,375546,3957
1705465213467,427423,375555,3942
1705465213482,427526,375576,3961
1705465213479,427459,375651,3941
1705465213495,427424,375646,3872
1705465213510,427494,375580,3939
1705465213526,427467,375647,3922
1705465213542,427534,375602,3863
1705465213557,427601,375643,3941
1705465213572,427587,375652,3948
1705465213588,427600,375622,3888
1705465213603,427645,375579,3978
1705465213619,427568,375624,4026
1705465213635,427646,375619,3942
1705465213650,427536,375561,3941
1705465213663,427579,375673,3963
1705465213679,427517,375666,3943
1705465213694,427527,375663,3926
1705465213710,427477,375682,3940
1705465213726,427540,375690,3949
1705465213741,427524,375627,3880
1705465213751,427556,375584,3940
1705465213767,427544,375658,3954
1705465213782,427624,375644,3861
1705465213798,427561,375625,3938
1705465213814,427587,375658,3912
1705465213829,427703,375683,3946
1705465213857,427662,375701,3934
1705465213873,427685,375716,4009
1705465213888,427719,375692,3940
1705465213904,427637,375704,3967
1705465213920,427552,375713,3950
1705465213935,427539,375597,3942
1705465213960,427535,375593,3940
1705465213976,427486,375645,3944
1705465213991,427508,375632,3974
1705465214007,427582,375558,3941
1705465214023,427510,375637,3940
1705465214038,427572,375616,3881
1705465214038,427575,375641,3936
1705465214054,427565,375598,3918
1705465214069,427571,375578,3897
1705465214085,427560,375524,3958
1705465214101,427533,375517,3975
1705465214116,427609,375603,3969
1705465214124,427529,375614,3919
1705465214140,427546,375579,4017
1705465214155,427486,375576,3942
1705465214171,427497,375589,3937
1705465214187,427533,375565,3945
1705465214202,427419,375549,3936
1705465214233,427477,375528,3942
1705465214249,427418,375509,3957
1705465214264,427401,375510,3967
1705465214280,427396,375458,3920
1705465214296,427458,375481,3939
1705465214311,427466,375448,3922
1705465214331,427419,375439,3939
1705465214347,427383,375372,3913
1705465214362,427366,375391,4006
1705465214378,427453,375429,3940
1705465214394,427415,375377,3937
1705465214409,427450,375481,4017
1705465214410,427483,375490,3961
1705465214426,427486,375575,3933
1705465214441,427479,375522,3961
1705465214457,427564,375617,3941
1705465214473,427510,375503,3878
1705465214488,427424,375585,3940
1705465214515,427466,375515,3941
1705465214531,427549,375509,3908
1705465214546,427544,375497,3933
1705465214562,427525,375533,3867
1705465214578,427545,375491,3938
1705465214593,427538,375414,3964
1705465214605,427495,375520,3880
1705465214621,427564,375436,3940
1705465214636,427453,375572,3985
1705465214652,427413,375462,3921
1705465214668,427396,375369,3937
1705465214683,427331,375310,3955
1705465214694,427326,375396,3935
1705465214710,427320,375293,3965
1705465214725,427341,375337,3877
1705465214741,427346,375363,3966
1705465214757,427317,375312,3917
1705465214772,427402,375329,3937
1705465214787,427326,375277,3958
1705465214803,427327,375369,3916
1705465214818,427359,375256,3936
1705465214834,427281,375364,3964
1705465214850,427234,375347,3979
1705465214865,427281,375211,3937
1705465214905,427184,375311,3935
1705465214921,427145,375302,3936
1705465214936,427216,375221,3942
1705465214952,427188,375313,3946
1705465214968,427087,375270,3957
1705465214983,427166,375183,3875
1705465214983,427087,375192,3936
1705465214999,427149,375294,3910
1705465215014,427131,375206,3880
1705465215030,427149,375125,3949
1705465215046,427126,375206,3893
1705465215061,427228,375170,3926
1705465215069,427145,375202,3941
1705465215085,427124,375179,3970
1705465215100,427188,375147,3934
1705465215116,427137,375185,3934
1705465215132,427102,375202,3983
1705465215147,427119,375165,3936
1705465215162,427128,375177,3967
1705465215178,427087,375202,3936
1705465215193,427111,375309,3934
1705465215209,427210,375211,3946
1705465215225,427056,375259,3935
1705465215240,427157,375275,3920
1705465215266,427173,375191,3932
1705465215282,427111,375202,3919
1705465215297,427161,375169,3890
1705465215313,427216,375236,3956
1705465215329,427204,375140,3936
1705465215344,427265,375222,3969
1705465215354,427247,375166,3936
1705465215370,427260,375315,3977
1705465215385,427236,375278,3935
1705465215401,427202,375311,3942
1705465215417,427217,375216,3959
1705465215432,427097,375205,3935
1705465215474,427150,375188,3873
1705465215490,427083,375186,3938
1705465215505,427006,375150,3928
1705465215521,427031,375099,3867
1705465215537,427123,375092,3935
1705465215552,427048,375026,3899
1705465215538,426948,374996,3948
1705465215554,427001,374892,3935
1705465215569,426941,374987,4006
1705465215585,426977,374945,3934
1705465215601,426864,374832,3933
1705465215616,426859,374913,4011
1705465215625,426851,374923,3933
1705465215641,426860,374909,3916
1705465215656,426747,374815,3956
1705465215672,426755,374854,3950
1705465215688,426738,374759,3867
1705465215703,426666,374793,3931
1705465215732,426731,374770,3932
1705465215748,426769,374725,3849
1705465215763,426812,374713,3904
1705465215779,426730,374655,3944
1705465215795,426824,374733,3936
1705465215810,426688,374610,3914
1705465215836,426675,374705,3928
1705465215852,426723,374639,3933
1705465215867,426665,374618,3967
1705465215883,426579,374595,3931
1705465215899,426598,374595,3930
1705465215914,426568,374575,3932
1705465215910,426548,374543,3951
1705465215926,426572,374654,3961
1705465215941,426533,374563,3865
1705465215957,426605,374621,3930
1705465215973,426532,374595,3868
1705465215988,426624,374590,3937
1705465216028,426543,374531,3928
1705465216044,426477,374537,3908
1705465216059,426627,374510,3929
1705465216075,426568,374522,3965
1705465216091,426565,374502,3956
1705465216106,426577,374497,3926
1705465216107,426551,374549,3908
1705465216123,426451,374520,3928
1705465216138,426446,374498,3929
1705465216154,426526,374470,3931
1705465216170,426384,374528,3928
1705465216185,426395,374474,3850
1705465216211,426355,374348,3926
1705465216227,426331,374434,3953
1705465216242,426264,374295,3848
1705465216258,426305,374294,3926
1705465216274,426275,374247,3913
1705465216289,426177,374216,3877
1705465216285,426222,374174,3924
1705465216301,426216,374119,3995
1705465216316,426236,374174,3928
1705465216332,426147,374116,3926
1705465216348,426149,374129,4006
1705465216363,426102,374069,3927
1705465216390,426140,374126,3920
1705465216406,426059,374117,3930
1705465216421,426175,374146,3960
1705465216437,426152,374050,3937
1705465216453,426073,374085,3913
1705465216468,426104,374116,3899
1705465216482,426205,374062,3924
1705465216498,426270,374126,3922
1705465216513,426262,374096,3879
1705465216529,426260,374132,3906
1705465216545,426264,374077,3951
1705465216560,426275,374161,3995
1705465216568,426244,374066,3909
1705465216584,426219,374167,3983
1705465216599,426143,374159,3959
1705465216615,426189,374062,3948
1705465216631,426138,374103,3937
1705465216646,426051,374094,3930
1705465216668,426156,374044,3948
1705465216684,426089,373978,3885
1705465216699,425944,374048,3936
1705465216715,426074,373916,3843
1705465216731,426011,373934,3928
1705465216746,425971,373874,3909
1705465216766,426056,373920,3930
1705465216782,426114,373837,3925
1705465216797,426072,373871,3936
1705465216813,426112,373926,3946
1705465216829,426098,373919,3945
1705465216844,426099,373951,4004
1705465216855,426060,373982,3906
1705465216871,426089,373956,3936
1705465216886,426100,373942,3905
1705465216902,426021,373981,3929
1705465216918,425957,373851,3862
1705465216933,425800,373812,3924
1705465216948,425928,373782,3898
1705465216964,425879,373703,3915
1705465216979,425858,373663,3923
1705465216995,425786,373664,3898
1705465217011,425806,373681,3914
1705465217026,425721,373550,3950
1705465217039,425672,373596,3925
1705465217055,425733,373498,3921
1705465217070,425633,373424,3923
1705465217086,425693,373458,3922
1705465217102,425611,373447,3923
1705465217117,425603,373489,3952
1705465217141,425647,373442,3928
1705465217157,425563,373497,3924
1705465217172,425546,373436,3858
1705465217188,425569,373396,3938
1705465217204,425538,373401,3908
1705465217219,425542,373340,3905
1705465217230,425492,373335,3954
1705465217246,425535,373310,3890
1705465217261,425576,373296,3921
1705465217277,425500,373304,3942
1705465217293,425499,373280,3970
1705465217308,425572,373292,3919
1705465217324,425574,373346,3988
1705465217340,425485,373289,3923
1705465217355,425545,373282,3924
1705465217371,425542,373337,3937
1705465217387,425465,373365,3923
1705465217402,425537,373335,3824
1705465217412,425557,373308,3912
1705465217428,425467,373393,3909
1705465217443,425488,373323,3842
1705465217459,425598,373277,3924
1705465217475,425560,373321,3904
1705465217490,425602,373342,3892
1705465217500,425569,373320,3901
1705465217516,425453,373396,3983
1705465217531,425658,373349,3923
1705465217547,425619,373349,3924
1705465217563,425535,373382,4002
1705465217578,425598,373328,3927
1705465217608,425598,373380,3922
1705465217624,425586,373466,3949
1705465217639,425592,373449,3931
1705465217655,425662,373356,3880
1705465217671,425495,373350,3922
1705465217686,425539,373361,3944
1705465217699,425552,373260,3920
1705465217715,425475,373251,3923
1705465217730,425444,373230,3899
1705465217746,425578,373254,3922
1705465217762,425442,373149,3906
1705465217777,425441,373182,3990
1705465217786,425414,373186,3926
1705465217802,425382,373139,3937
1705465217817,425364,373177,3968
1705465217833,425409,373106,3922
1705465217849,425383,373114,3946
1705465217864,425378,373180,3925
1705465217890,425369,373123,3933
1705465217906,425376,373106,3859
1705465217921,425301,373189,3924
1705465217937,425409,373116,3865
1705465217953,425540,373169,3932
1705465217968,425463,373124,3905
1705465217984,425472,373187,3921
1705465218000,425594,373160,3927
1705465218015,425421,373066,3983
1705465218031,425483,373151,3922
1705465218047,425438,373083,3923
1705465218062,425402,373117,3980
1705465218073,425458,373087,3937
1705465218089,425421,373057,3924
1705465218104,425485,373129,3949
1705465218120,425479,373195,3937
1705465218136,425535,373206,3846
1705465218151,425526,373209,3942
1705465218159,425608,373213,3925
1705465218175,425643,373292,3845
1705465218190,425677,373290,3928
1705465218206,425567,373294,3950
1705465218222,425707,373341,3880
1705465218237,425704,373299,3910
1705465218265,425736,373340,3967
1705465218281,425752,373383,3928
1705465218296,425760,373310,3928
1705465218312,425771,373365,3946
1705465218328,425749,373389,3927
1705465218343,425780,373425,3923
1705465218356,425661,373452,3900
1705465218372,425805,373504,3961
1705465218387,425827,373496,3886
1705465218403,425812,373500,3911
1705465218419,425834,373533,3902
1705465218434,425840,373466,3855
1705465218445,425802,373449,3925
1705465218461,425789,373444,3882
1705465218476,425816,373423,3927
1705465218492,425733,373422,3926
1705465218508,425728,373407,3998
1705465218523,425793,373335,3928
1705465218538,425719,373396,3945
1705465218554,425645,373308,3928
1705465218569,425719,373277,3929
1705465218585,425737,373293,3953
1705465218601,425555,373317,3928
1705465218616,425641,373316,3936
1705465218640,425763,373322,3906
1705465218656,425534,373350,3938
1705465218671,425675,373262,3864
1705465218687,425712,373263,3942
1705465218703,425664,373288,3908
1705465218718,425645,373262,3883
1705465218728,425657,373180,3931
1705465218744,425625,373185,3959
1705465218759,425714,373264,3971
1705465218775,425642,373264,3929
1705465218791,425661,373231,4005
1705465218806,425628,373245,3930
1705465218822,425678,373216,3935
1705465218838,425613,373250,3901
1705465218853,425603,373323,3929
1705465218869,425636,373232,3910
1705465218885,425591,373233,3929
1705465218900,425652,373331,3904
1705465218912,425720,373313,3929
1705465218928,425775,373255,3929
1705465218943,425709,373358,3882
1705465218959,425793,373352,3932
1705465218975,425728,373281,3956
1705465218990,425737,373351,4000
1705465219000,425780,373360,3928
1705465219016,425764,373299,3929
1705465219031,425786,373369,3976
1705465219047,425727,373316,3930
1705465219063,425810,373382,3966
1705465219078,425677,373392,3928
1705465219107,425762,373444,3921
1705465219123,425722,373416,3874
1705465219138,425658,373497,3930
1705465219154,425792,373485,3831
1705465219170,425860,373529,3910
1705465219185,425861,373583,3912
1705465219197,425757,373470,3930
1705465219213,425863,373467,3931
1705465219228,425776,373379,3891
1705465219244,425720,373421,3931
1705465219260,425768,373364,3927
1705465219275,425669,373413,4016
1705465219288,425656,373419,3911
1705465219304,425654,373286,3939
1705465219319,425618,373275,3949
1705465219335,425615,373372,3927
1705465219351,425567,373293,3865
1705465219366,425486,373268,3919
1705465219375,425569,373219,3887
1705465219391,425534,373232,3938
1705465219406,425569,373263,3928
1705465219422,425478,373226,3931
1705465219438,425486,373193,3875
1705465219453,425552,373132,3929
1705465219482,425474,373207,3976
1705465219498,425560,373134,3927
1705465219513,425521,373102,3926
1705465219529,425451,373127,3944
1705465219545,425448,373130,3926
1705465219560,425495,373196,3938
1705465219584,425458,373173,3927
1705465219600,425480,373237,3930
1705465219615,425474,373176,3867
1705465219631,425413,373222,3926
1705465219647,425527,373315,3928
1705465219662,425571,373257,3849
1705465219660,425535,373307,3911
1705465219676,425539,373294,3914
1705465219691,425675,373316,3933
1705465219707,425645,373211,3931
1705465219723,425654,373353,3975
1705465219738,425666,373346,3927
1705465219765,425599,373369,3956
1705465219781,425575,373373,3956
1705465219796,425710,373385,3930
1705465219812,425625,373365,3954
1705465219828,425632,373376,3931
1705465219843,425641,373479,3960
1705465219858,425712,373470,3948
1705465219874,425636,373541,3929
1705465219889,425769,373520,3872
1705465219905,425825,373484,3930
1705465219921,425746,373484,3908
1705465219936,425746,373555,3885
1705465219944,425788,373537,3933
1705465219960,425788,373472,3976
1705465219975,425850,373657,3974
1705465219991,425821,373634,3952
1705465220007,425874,373618,4007
1705465220022,425824,373564,3930
1705465220037,425804,373640,3932
1705465220053,425765,373581,3953
1705465220068,425669,373580,3929
1705465220084,425779,373535,3854
1705465220100,425703,373533,3945
1705465220115,425793,373558,3931
1705465220140,425762,373472,3923
1705465220156,425791,373500,3931
1705465220171,425715,373424,3915
1705465220187,425765,373432,3898
1705465220203,425713,373364,3924
1705465220218,425696,373410,3988
1705465220232,425680,373429,3924
1705465220248,425709,373401,3931
1705465220263,425696,373454,3987
1705465220279,425704,373384,3930
1705465220295,425724,373464,3930
1705465220310,425716,373426,3953
1705465220320,425649,373435,3931
1705465220336,425744,373480,3863
1705465220351,425634,373493,3930
1705465220367,425771,373516,3926
1705465220383,425803,373499,3855
1705465220398,425781,373528,3929
1705465220412,425795,373550,3908
1705465220428,425868,373522,3900
1705465220443,425779,373453,3954
1705465220459,425824,373599,3924
1705465220475,425874,373551,3932
1705465220490,425910,373605,3979
1705465220500,425765,373611,3952
1705465220516,425916,373588,3932
1705465220531,425911,373631,3945
1705465220547,425862,373706,3931
1705465220563,425940,373710,3933
1705465220578,425936,373674,3875
1705465220604,425936,373680,3943
1705465220620,425980,373721,3853
1705465220635,426080,373687,3934
1705465220651,425934,373712,3933
1705465220667,425983,373732,3881
1705465220682,426060,373663,3935
1705465220712,426040,373735,3937
1705465220728,426104,373795,3975
1705465220743,426110,373738,3956
1705465220759,426071,373793,3963
1705465220775,426057,373834,3937
1705465220790,426097,373860,3940
1705465220799,426158,373908,3934
1705465220815,426076,373998,3937
1705465220830,426152,373945,3937
1705465220846,426078,373938,3936
1705465220862,426181,373969,3911
1705465220877,426228,373945,3855
1705465220874,426137,373911,3937
1705465220890,426140,373886,3894
1705465220905,426264,373907,3926
1705465220921,426233,373818,3959
1705465220937,426238,373894,4004
1705465220952,426334,373909,3937
1705465220996,426257,373927,3939
1705465221012,426210,373899,3984
1705465221027,426181,373955,3935
1705465221043,426208,373861,3940
1705465221059,426147,373908,3939
1705465221074,426214,373980,3933
1705465221086,426196,373929,3937
1705465221102,426182,373945,3936
1705465221117,426213,373910,3879
1705465221133,426262,373886,3937
1705465221149,426268,373930,3922
1705465221164,426262,373914,3892
1705465221159,426274,373948,3959
1705465221175,426254,373829,3935
1705465221190,426289,373942,3983
1705465221206,426369,373856,3933
1705465221222,426290,374004,4026
1705465221237,426269,373981,3942
1705465221267,426378,374011,3911
1705465221283,426354,374017,3943
1705465221298,426288,374007,3936
1705465221314,426363,373952,3818
1705465221330,426355,374035,3940
1705465221345,426329,374049,3914
1705465221357,426429,374053,3917
1705465221373,426430,374064,3935
1705465221388,426444,374007,3918
1705465221404,426459,374036,3939
1705465221420,426502,374045,3938
1705465221435,426410,374105,4023
1705465221460,426514,374087,3940
1705465221476,426467,374036,3960
1705465221491,426508,374184,4016
1705465221507,426476,374149,3938
1705465221523,426527,374218,3939
1705465221538,426542,374208,3962
1705465221548,426601,374294,3940
1705465221564,426559,374218,3857
1705465221579,426464,374268,3941
1705465221595,426649,374276,3940
1705465221611,426628,374297,3906
1705465221626,426666,374344,3943
1705465221640,426626,374286,3899
1705465221656,426689,374288,3944
1705465221671,426602,374151,3920
1705465221687,426598,374273,3938
1705465221703,426606,374194,3939
1705465221718,426508,374214,3976
1705465221732,426508,374214,3932
1705465221748,426516,374112,3939
1705465221763,426480,374118,3957
1705465221779,426376,374088,3939
1705465221795,426383,374121,3963
1705465221810,426400,374052,3877
1705465221820,426313,373997,3918
1705465221836,426367,374063,3876
1705465221851,426470,374068,3953
1705465221867,426402,374074,3921
1705465221883,426366,374054,3894
1705465221898,426401,374032,3965
1705465221914,426457,374120,3995
1705465221930,426415,374087,3966
1705465221945,426462,373980,3939
1705465221961,426375,374120,3968
1705465221977,426369,374040,3940
1705465221992,426475,374050,3938
1705465222015,426427,374072,3930
1705465222031,426345,374133,3939
1705465222046,426391,374060,3873
1705465222062,426315,374032,3944
1705465222078,426304,374032,3936
1705465222093,426252,373980,3851
1705465222104,426187,373950,3959
1705465222120,426158,373925,3920
1705465222135,426238,373930,3915
1705465222151,426191,373929,3935
1705465222167,426216,373956,4002
1705465222182,426286,373979,3935
1705465222197,426256,373925,3907
1705465222213,426219,374033,4012
1705465222228,426240,373944,3934
1705465222244,426314,374008,3933
1705465222260,426211,374015,3956
1705465222275,426229,374073,3982
1705465222287,426256,374077,3935
1705465222303,426201,374060,3926
1705465222318,426309,374132,3932
1705465222334,426325,374092,3940
1705465222350,426369,374082,3930
1705465222365,426334,374096,3888
1705465222392,426370,374108,3943
1705465222408,426339,374019,3958
1705465222423,426348,374174,3971
1705465222439,426386,374081,3937
1705465222455,426363,374186,3957
1705465222470,426325,374131,3969
1705465222479,426272,374062,3965
1705465222495,426242,374005,3955
1705465222510,426206,374046,3936
1705465222526,426312,374018,3932
1705465222542,426213,373997,3878
1705465222557,426111,374062,3944
1705465222572,426137,373972,3941
1705465222588,426225,373942,3944
1705465222603,426126,373897,3917
1705465222619,426029,373884,3939
1705465222635,426182,373926,3935
1705465222650,426065,373877,3946
1705465222662,426049,373900,3934
1705465222678,426048,373797,3935
1705465222693,426084,373890,3981
1705465222709,426101,373862,3934
1705465222725,426048,373839,3942
1705465222740,426002,373885,3915
1705465222749,426063,373863,3935
1705465222765,426027,373874,3895
1705465222780,425923,373893,3934
1705465222796,425984,373850,3904
1705465222812,425982,373823,3855
1705465222827,426053,373827,3936
1705465222856,426016,373880,3906
1705465222872,426108,373836,3928
1705465222887,426028,373767,3958
1705465222903,426046,373818,3990
1705465222919,426165,373911,3934
1705465222934,426165,373882,3935
1705465222947,426094,373852,3956
1705465222963,426057,373923,3936
1705465222978,426127,373937,3970
1705465222994,426016,373942,3936
1705465223010,426176,373998,3941
1705465223025,426156,373975,3874
1705465223035,426123,373888,3925
1705465223051,426197,373965,3890
1705465223066,426214,373958,3919
1705465223082,426227,373930,3923
1705465223098,426211,374015,3889
1705465223113,426288,374004,3936
1705465223140,426144,374001,3959
1705465223156,426252,373977,3990
1705465223171,426342,373975,3937
1705465223187,426304,374032,3993
1705465223203,426232,374018,3936
1705465223218,426304,373993,3935
1705465223232,426340,374062,3956
1705465223248,426206,374141,3938
1705465223263,426246,374048,3951
1705465223279,426195,374031,3936
1705465223295,426183,374025,3912
1705465223310,426168,373921,3854
1705465223320,426139,373904,3936
1705465223336,426131,373891,3916
1705465223351,426096,373866,3884
1705465223367,426035,373723,3936
1705465223383,426074,373803,4020
1705465223398,426061,373777,3936
1705465223412,426047,373748,3933
1705465223428,426073,373755,4014
1705465223443,426015,373773,3936
1705465223459,426013,373764,3904
1705465223475,425993,373761,3961
1705465223490,426001,373840,3928
1705465223514,426132,373833,3959
1705465223530,425916,373776,3937
1705465223545,426026,373796,3964
1705465223561,426052,373741,3924
1705465223577,426058,373722,3934
1705465223592,426068,373763,3903
1705465223606,426088,373702,3945
1705465223622,426061,373618,3937
1705465223637,426036,373702,4004
1705465223653,426046,373711,3936
1705465223669,426131,373701,3974
1705465223684,426050,373787,3963
1705465223694,426075,373755,3935
1705465223710,426070,373746,3957
1705465223725,426009,373695,3945
1705465223741,426125,373765,3938
1705465223757,426113,373772,3886
1705465223772,426066,373791,3934
1705465223788,426151,373812,3906
1705465223804,426172,373783,3944
1705465223819,426125,373696,3916
1705465223835,426216,373769,3935
1705465223851,426291,373749,3938
1705465223866,426160,373707,3994
1705465223890,426218,373767,3921
1705465223906,426253,373723,3936
1705465223921,426216,373799,4014
1705465223937,426149,373807,3939
1705465223953,426223,373794,3969
1705465223968,426297,373854,3957
1705465223966,426251,373848,3933
1705465223982,426298,373851,3861
1705465223997,426243,373862,3937
1705465224013,426343,373979,3963
1705465224029,426330,373920,3882
1705465224044,426347,373841,3930
1705465224072,426274,373847,3939
1705465224088,426252,373843,3894
1705465224103,426212,373698,3932
1705465224119,426203,373771,3963
1705465224135,426199,373731,3937
1705465224150,426153,373629,3935
1705465224162,426085,373663,3937
1705465224178,426006,373568,3938
1705465224193,425985,373645,3948
1705465224209,425958,373551,3953
1705465224225,425893,373578,3936
1705465224240,425877,373473,3871
1705465224265,425913,373455,3938
1705465224281,425893,373497,3888
1705465224296,425879,373487,3856
1705465224312,425842,373484,3929
1705465224328,425827,373426,3903
1705465224343,425911,373415,3933
1705465224359,425812,373406,3963
1705465224375,425849,373349,4002
1705465224390,425854,373333,3934
1705465224406,425831,373358,3953
1705465224422,425776,373346,3966
1705465224437,425833,373368,3933
1705465224448,425811,373376,3908
1705465224464,425731,373367,3934
1705465224479,425842,373358,3952
1705465224495,425795,373359,3936
1705465224511,425751,373411,3906
1705465224526,425803,373379,3853
1705465224537,425809,373364,3933
1705465224553,425823,373338,3918
1705465224568,425842,373377,3911
1705465224584,425727,373294,3934
1705465224600,425706,373245,3941
1705465224615,425786,373266,3976
1705465224624,425674,373337,3935
1705465224640,425711,373293,4014
1705465224655,425725,373295,3935
1705465224671,425781,373354,3939
1705465224687,425820,373301,3917
1705465224702,425714,373400,3936
1705465224733,425813,373279,3933
1705465224749,425657,373298,3917
1705465224764,425715,373359,3936
1705465224780,425653,373225,3943
1705465224796,425750,373252,3933
1705465224811,425670,373230,3909
1705465224834,425666,373242,3880
1705465224850,425571,373146,3959
1705465224865,425541,373182,3977
1705465224881,425580,373133,3934
1705465224897,425496,373059,3930
1705465224912,425426,373076,3977
1705465224908,425436,373113,3954
1705465224924,425371,373054,3959
1705465224939,425242,372951,3930
1705465224955,425327,372965,3930
1705465224971,425304,372922,3866
1705465224986,425151,372920,3931
1705465225016,425251,372819,3885
1705465225032,425291,372814,3905
1705465225047,425233,372833,3930
1705465225063,425268,372773,3890
1705465225079,425263,372748,3927
1705465225094,425093,372639,3927
1705465225106,425140,372641,3936
1705465225122,425132,372544,3933
1705465225137,425100,372568,3979
1705465225153,425111,372581,3921
1705465225169,425104,372539,3929
1705465225184,425064,372553,3928
1705465225195,425082,372590,3939
1705465225211,425080,372598,3859
1705465225226,425104,372532,3930
1705465225242,425122,372589,3905
1705465225258,425085,372550,3848
1705465225273,425154,372581,3929
1705465225288,425153,372527,3931
1705465225304,425081,372535,3906
1705465225319,425149,372462,3929
1705465225335,425038,372571,4013
1705465225351,425143,372581,3932
1705465225366,425130,372536,3928
1705465225405,425087,372511,3928
1705465225421,425121,372520,3929
1705465225436,425091,372598,3963
1705465225452,425074,372591,3947
1705465225468,425113,372612,3936
1705465225483,425084,372539,3869
1705465225480,425188,372568,3931
1705465225496,425221,372690,3957
1705465225511,425238,372654,3849
1705465225527,425297,372661,3931
1705465225543,425316,372750,3904
1705465225558,425527,372808,3937
1705465225573,425479,372797,3930
1705465225589,425473,372872,3998
1705465225604,425538,372872,3933
1705465225620,425477,372846,3961
1705465225636,425398,372852,3958
1705465225651,425350,372794,3935
1705465225663,425315,372689,3942
1705465225679,425176,372623,3931
1705465225694,425175,372624,3966
1705465225710,425143,372498,3913
1705465225726,425093,372581,3929
1705465225741,425090,372519,3873
1705465225765,425150,372455,3931
1705465225781,425091,372446,3908
1705465225796,425114,372397,3881
1705465225812,425136,372428,3945
1705465225828,425129,372374,3993
1705465225843,425109,372427,3959
1705465225840,425139,372488,3928
1705465225856,425107,372456,4008
1705465225871,425026,372508,3931
1705465225887,425052,372439,3930
1705465225903,425145,372436,3938
1705465225918,424988,372444,3931
1705465225961,425094,372439,3876
1705465225977,425037,372424,3947
1705465225992,425182,372471,3961
1705465226008,425119,372416,3938
1705465226024,425171,372463,3927
1705465226039,425115,372424,3915
1705465226038,425139,372441,3930
1705465226054,425151,372424,3930
1705465226069,425156,372451,3998
1705465226085,425197,372374,3930
1705465226101,425159,372333,3932
1705465226116,425161,372391,4010
1705465226139,425037,372384,3932
1705465226155,425179,372531,3929
1705465226170,425104,372496,3956
1705465226186,425180,372480,3919
1705465226202,425179,372495,3869
1705465226217,425078,372517,3934
1705465226231,425199,372453,3923
1705465226247,425246,372521,3913
1705465226262,425225,372508,3925
1705465226278,425204,372539,3909
1705465226294,425309,372584,3930
1705465226309,425252,372496,3956
1705465226320,425260,372604,3909
1705465226336,425319,372528,3929
1705465226351,425276,372597,3978
1705465226367,425244,372685,3933
1705465226383,425371,372684,3954
1705465226398,425322,372690,3954
1705465226410,425341,372703,3930
1705465226426,425332,372686,3952
1705465226441,425269,372644,3873
1705465226457,425271,372624,3943
1705465226473,425238,372589,3878
1705465226488,425291,372559,3933
1705465226515,425267,372546,3939
1705465226531,425235,372583,3886
1705465226546,425286,372514,3931
1705465226562,425216,372531,3927
1705465226578,425220,372517,3972
1705465226593,425162,372401,3930
1705465226618,425151,372475,3931
1705465226634,425180,372456,3955
1705465226649,425152,372490,3940
1705465226665,425135,372486,3946
1705465226681,425119,372557,3932
1705465226696,425154,372514,3870
1705465226709,425107,372493,3905
1705465226725,425173,372516,3902
1705465226740,425118,372512,3844
1705465226756,425166,372431,3967
1705465226772,425161,372491,3888
1705465226787,425243,372486,3923
1705465226784,425169,372448,3910
1705465226800,425234,372550,3987
1705465226815,425344,372561,3932
1705465226831,425263,372567,3949
1705465226847,425265,372576,3971
1705465226862,425225,372574,3931
1705465226890,425236,372590,3972
1705465226906,425185,372604,3904
1705465226921,425233,372702,3952
1705465226937,425267,372634,3945
1705465226953,425167,372669,3933
1705465226968,425300,372661,3835
1705465226982,425288,372628,3901
1705465226998,425245,372683,3897
1705465227013,425251,372643,3883
1705465227029,425292,372683,3926
1705465227045,425311,372560,3931
1705465227060,425324,372700,3965
1705465227070,425332,372728,3932
1705465227086,425277,372743,4020
1705465227101,425249,372651,3935
1705465227117,425343,372776,3933
1705465227133,425306,372674,3942
1705465227148,425229,372750,3932
1705465227163,425264,372743,3857
1705465227179,425259,372721,3934
1705465227194,425240,372789,3909
1705465227210,425307,372688,3896
1705465227226,425282,372736,3931
1705465227241,425261,372745,3881
1705465227263,425308,372758,3937
1705465227279,425298,372643,3934
1705465227294,425239,372777,3976
1705465227310,425298,372745,3933
1705465227326,425265,372700,3931
1705465227341,425208,372722,4011
1705465227355,425249,372734,3999
1705465227371,425208,372790,3933
1705465227386,425186,372854,3956
1705465227402,425238,372814,3940
1705465227418,425233,372804,3912
1705465227433,425095,372822,3930
1705465227447,425251,372836,3933
1705465227463,425194,372795,3851
1705465227478,425280,372791,3936
1705465227494,425269,372820,3903
1705465227510,425399,372783,3938
1705465227525,425278,372752,3933
1705465227537,425206,372825,3932
1705465227553,425383,372814,3933
1705465227568,425325,372833,3969
1705465227584,425256,372870,3912
1705465227600,425281,372839,3933
1705465227615,425326,372910,3950
1705465227624,425342,372872,3957
1705465227640,425336,372965,3967
1705465227655,425318,372911,3873
1705465227671,425365,373009,3935
1705465227687,425415,372992,3875
1705465227702,425424,372967,3940
1705465227731,425413,372956,3938
1705465227747,425437,372961,3886
1705465227762,425503,373002,3934
1705465227778,425486,372928,3968
1705465227794,425499,373027,3964
1705465227809,425509,372973,3935
1705465227822,425473,373037,3965
1705465227838,425442,373001,3934
1705465227853,425465,373043,3934
1705465227869,425462,373067,3935
1705465227885,425464,373137,3934
1705465227900,425504,373126,3878
1705465227913,425448,373091,3934
1705465227929,425518,373206,3961
1705465227944,425585,373122,3853
1705465227960,425545,373106,3957
1705465227976,425503,373140,3917
1705465227991,425486,373038,3888
1705465228001,425465,372957,3928
1705465228017,425402,373006,4002
1705465228032,425536,372989,3933
1705465228048,425361,372951,3949
1705465228064,425342,372924,4010
1705465228079,425285,372885,3932
1705465228115,425374,372833,3896
1705465228131,425248,372891,3953
1705465228146,425237,372913,3963
1705465228162,425218,372884,3954
1705465228178,425256,372915,3932
1705465228193,425323,372926,3905
1705465228209,425308,372903,3932
1705465228225,425280,372878,3930
1705465228240,425265,372875,3882
1705465228256,425372,372871,3934
1705465228272,425326,372774,3957
1705465228287,425286,372872,4001
1705465228285,425318,372835,3953
1705465228301,425305,372867,3995
1705465228316,425215,372860,3961
1705465228332,425321,372920,3931
1705465228348,425339,372882,3950
1705465228363,425232,372944,3934
1705465228389,425365,372925,3939
1705465228405,425352,372878,3861
1705465228420,425294,372992,3942
1705465228436,425335,372880,3889
1705465228452,425465,372908,3935
1705465228467,425371,372957,3912
1705465228481,425326,372978,3916
1705465228497,425474,372918,3931
1705465228512,425385,372943,3945
1705465228528,425391,372988,3946
1705465228544,425457,372952,3931
1705465228559,425458,373031,3984
1705465228570,425495,373069,3930
1705465228586,425453,373027,3940
1705465228601,425466,373061,3922
1705465228617,425479,373144,3937
1705465228633,425500,373071,3874
1705465228648,425484,373108,3933
1705465228664,425559,373148,3934
1705465228680,425541,373119,3845
1705465228695,425550,373138,3932
1705465228711,425525,373185,3939
1705465228727,425602,373117,3895
1705465228742,425592,373031,3958
1705465228764,425518,373184,3953
1705465228780,425540,373089,3952
1705465228795,425477,373026,3932
1705465228811,425489,373108,3950
1705465228827,425454,373049,3932
1705465228842,425430,373065,3958
1705465228857,425441,373108,3948
1705465228873,425421,373106,3932
1705465228888,425409,373017,3867
1705465228904,425388,373073,3925
1705465228920,425377,373011,3860
1705465228935,425409,372990,3912
1705465228945,425392,372973,3922
1705465228961,425395,373018,3901
1705465228976,425468,372977,3932
1705465228992,425371,372976,3947
1705465229008,425335,372947,3941
1705465229023,425397,372897,3930
1705465229039,425348,372981,3969
1705465229055,425318,372992,3934
1705465229070,425349,372913,3942
1705465229086,425392,373014,3947
1705465229102,425221,373041,3931
1705465229117,425370,372979,3865
1705465229139,425316,372954,3931
1705465229155,425344,373047,3881
1705465229170,425393,373065,3849
1705465229186,425468,373030,3932
1705465229202,425408,373060,3912
1705465229217,425426,373073,3912
1705465229229,425438,373073,3909
1705465229245,425468,373048,4015
1705465229260,425567,373082,3932
1705465229276,425484,373080,3919
1705465229292,425483,373096,3961
1705465229307,425494,373177,3932
1705465229322,425514,373122,3898
1705465229338,425507,373120,3955
1705465229353,425471,373217,3939
1705465229369,425539,373157,3888
1705465229385,425462,373184,3930
1705465229400,425583,373260,3890
1705465229412,425579,373165,3933
1705465229428,425650,373278,3932
1705465229443,425665,373312,3904
1705465229459,425708,373285,3931
1705465229475,425688,373265,3918
1705465229490,425731,373314,4001
1705465229499,425710,373311,3953
1705465229515,425689,373253,3975
1705465229530,425518,373247,3959
1705465229546,425595,373206,3933
1705465229562,425601,373181,3957
1705465229577,425512,373181,3932
1705465229605,425545,373122,3930
1705465229621,425481,373144,3870
1705465229636,425428,373178,3933
1705465229652,425394,373073,3873
1705465229668,425452,373052,3942
1705465229683,425370,373043,3933
1705465229697,425392,372966,3933
1705465229713,425466,373033,3933
1705465229728,425425,373054,3980
1705465229744,425516,373084,3933
1705465229760,425528,373003,3933
1705465229775,425514,373115,3999
1705465229788,425402,373117,3931
1705465229804,425426,373045,3932
1705465229819,425478,373109,3950
1705465229835,425473,373168,3933
1705465229851,425451,373116,3874
1705465229866,425371,373109,3944
1705465229879,425426,373162,3949
1705465229895,425503,373085,3852
1705465229910,425517,373156,3933
1705465229926,425487,373119,3936
1705465229942,425522,373148,3884
1705465229957,425565,373119,3897
1705465229981,425559,373136,3981
1705465229997,425569,373166,3930
1705465230012,425548,373130,3931
1705465230028,425582,373227,3934
1705465230044,425518,373194,3934
1705465230059,425588,373296,3930
1705465230085,425597,373303,3963
1705465230101,425620,373272,3968
1705465230116,425630,373278,3871
1705465230132,425495,373306,3932
1705465230148,425621,373298,3917
1705465230163,425688,373299,3858
1705465230160,425683,373323,3927
1705465230176,425651,373319,3885
1705465230191,425714,373366,3930
1705465230207,425728,373350,3928
1705465230223,425750,373385,4000
1705465230238,425804,373327,3933
1705465230263,425659,373371,3967
1705465230279,425632,373315,3964
1705465230294,425650,373252,3953
1705465230310,425625,373289,3936
1705465230326,425516,373298,3931
1705465230341,425501,373243,3930
1705465230356,425546,373234,3930
1705465230372,425480,373220,3940
1705465230387,425487,373183,3851
1705465230403,425584,373121,3934
1705465230419,425416,373140,3916
1705465230434,425493,373093,3880
1705465230443,425459,372958,3931
1705465230459,425395,373046,3945
1705465230474,425430,373026,3973
1705465230490,425405,372940,3900
1705465230506,425431,373075,4008
1705465230521,425359,373040,3932
1705465230548,425376,373016,3926
1705465230564,425401,373039,3914
1705465230579,425326,373120,3930
1705465230595,425360,373008,3871
1705465230611,425282,372975,3929
1705465230626,425396,373036,3908
1705465230641,425369,373024,3933
1705465230657,425383,372923,3929
1705465230672,425387,372994,3886
1705465230688,425369,372967,3947
1705465230704,425371,372903,3954
1705465230719,425368,372968,3996
1705465230729,425349,372979,3947
1705465230745,425370,372935,3931
1705465230760,425384,373008,3964
1705465230776,425391,372982,3921
1705465230792,425424,373024,3940
1705465230807,425353,373025,3932
1705465230822,425417,373047,3942
1705465230838,425348,373041,3860
1705465230853,425364,373059,3933
1705465230869,425409,373033,3828
1705465230885,425411,373035,3935
1705465230900,425487,373039,3911
1705465230912,425435,372998,3936
1705465230928,425548,373096,3936
1705465230943,425439,373016,3931
1705465230959,425491,373089,3903
1705465230975,425503,373033,3932
1705465230990,425494,373156,4018
1705465231013,425565,373189,3947
1705465231029,425556,373141,3947
1705465231044,425507,373178,3950
1705465231060,425471,373261,3933
1705465231076,425427,373117,3903
1705465231091,425381,373063,3933
1705465231104,425434,373039,3950
1705465231120,425393,373005,3849
1705465231135,425377,373023,3930
1705465231151,425307,372935,3929
1705465231167,425295,372894,3900
1705465231182,425215,372800,3928
1705465231198,425163,372848,3959
1705465231214,425216,372778,3928
1705465231229,425146,372732,3932
1705465231245,425167,372791,3946
1705465231261,425202,372788,3929
